,FILE_ID,PDB_FILE_NAME,RESNAME,RES_NUM,CHAIN,RESNAME_im1,RESNAME_ip1,PHI_COS_i-1,PHI_SIN_i-1,PSI_COS_i-1,PSI_SIN_i-1,PHI_COS_i,PHI_SIN_i,PSI_COS_i,PSI_SIN_i,PHI_COS_i+1,PHI_SIN_i+1,PSI_COS_i+1,PSI_SIN_i+1,CHI1_COS_i-1,CHI1_SIN_i-1,CHI1_EXISTS_i-1,CHI2_COS_i-1,CHI2_SIN_i-1,CHI2_EXISTS_i-1,CHI1_COS_i,CHI1_SIN_i,CHI1_EXISTS_i,CHI2_COS_i,CHI2_SIN_i,CHI2_EXISTS_i,CHI1_COS_i+1,CHI1_SIN_i+1,CHI1_EXISTS_i+1,CHI2_COS_i+1,CHI2_SIN_i+1,CHI2_EXISTS_i+1,O_d_HA_i-1,O__COS_H_i-1,O__COS_A_i-1,O__EXISTS_i-1,O__ENERGY_i-1,Ha_d_HA_i,Ha__COS_H_i,Ha__COS_A_i,Ha__EXISTS_i,Ha__ENERGY_i,HN_d_HA_i,HN__COS_H_i,HN__COS_A_i,HN__EXISTS_i,HN__ENERGY_i,O_d_HA_i,O__COS_H_i,O__COS_A_i,O__EXISTS_i,O__ENERGY_i,HN_d_HA_i+1,HN__COS_H_i+1,HN__COS_A_i+1,HN__EXISTS_i+1,HN__ENERGY_i+1,S2_i-1,S2_i,S2_i+1,BLOSUM62_NUM_ALA_i-1,BLOSUM62_NUM_ARG_i-1,BLOSUM62_NUM_ASN_i-1,BLOSUM62_NUM_ASP_i-1,BLOSUM62_NUM_CYS_i-1,BLOSUM62_NUM_GLN_i-1,BLOSUM62_NUM_GLU_i-1,BLOSUM62_NUM_GLY_i-1,BLOSUM62_NUM_HIS_i-1,BLOSUM62_NUM_ILE_i-1,BLOSUM62_NUM_LEU_i-1,BLOSUM62_NUM_LYS_i-1,BLOSUM62_NUM_MET_i-1,BLOSUM62_NUM_PHE_i-1,BLOSUM62_NUM_PRO_i-1,BLOSUM62_NUM_SER_i-1,BLOSUM62_NUM_THR_i-1,BLOSUM62_NUM_TRP_i-1,BLOSUM62_NUM_TYR_i-1,BLOSUM62_NUM_VAL_i-1,BLOSUM62_NUM_ALA_i,BLOSUM62_NUM_ARG_i,BLOSUM62_NUM_ASN_i,BLOSUM62_NUM_ASP_i,BLOSUM62_NUM_CYS_i,BLOSUM62_NUM_GLN_i,BLOSUM62_NUM_GLU_i,BLOSUM62_NUM_GLY_i,BLOSUM62_NUM_HIS_i,BLOSUM62_NUM_ILE_i,BLOSUM62_NUM_LEU_i,BLOSUM62_NUM_LYS_i,BLOSUM62_NUM_MET_i,BLOSUM62_NUM_PHE_i,BLOSUM62_NUM_PRO_i,BLOSUM62_NUM_SER_i,BLOSUM62_NUM_THR_i,BLOSUM62_NUM_TRP_i,BLOSUM62_NUM_TYR_i,BLOSUM62_NUM_VAL_i,BLOSUM62_NUM_ALA_i+1,BLOSUM62_NUM_ARG_i+1,BLOSUM62_NUM_ASN_i+1,BLOSUM62_NUM_ASP_i+1,BLOSUM62_NUM_CYS_i+1,BLOSUM62_NUM_GLN_i+1,BLOSUM62_NUM_GLU_i+1,BLOSUM62_NUM_GLY_i+1,BLOSUM62_NUM_HIS_i+1,BLOSUM62_NUM_ILE_i+1,BLOSUM62_NUM_LEU_i+1,BLOSUM62_NUM_LYS_i+1,BLOSUM62_NUM_MET_i+1,BLOSUM62_NUM_PHE_i+1,BLOSUM62_NUM_PRO_i+1,BLOSUM62_NUM_SER_i+1,BLOSUM62_NUM_THR_i+1,BLOSUM62_NUM_TRP_i+1,BLOSUM62_NUM_TYR_i+1,BLOSUM62_NUM_VAL_i+1,RC_HA,RC_H,RC_CA,RC_CB,RC_C,RC_N,HSE_CA_U_i-1,HSE_CA_D_i-1,HSE_CA_Angle_i-1,HSE_CB_U_i-1,HSE_CB_D_i-1,HSE_CA_U_i,HSE_CA_D_i,HSE_CA_Angle_i,HSE_CB_U_i,HSE_CB_D_i,HSE_CA_U_i+1,HSE_CA_D_i+1,HSE_CA_Angle_i+1,HSE_CB_U_i+1,HSE_CB_D_i+1,REL_ASA_i-1,ABS_ASA_i-1,A_HELIX_SS_i-1,B_BRIDGE_SS_i-1,STRAND_SS_i-1,3_10_HELIX_SS_i-1,PI_HELIX_SS_i-1,TURN_SS_i-1,BEND_SS_i-1,NONE_SS_i-1,NH-O1_ENERGY_i-1,NH-O2_ENERGY_i-1,O-NH1_ENERGY_i-1,O-NH2_ENERGY_i-1,DSSP_PHI_i-1,DSSP_PSI_i-1,REL_ASA_i,ABS_ASA_i,A_HELIX_SS_i,B_BRIDGE_SS_i,STRAND_SS_i,3_10_HELIX_SS_i,PI_HELIX_SS_i,TURN_SS_i,BEND_SS_i,NONE_SS_i,NH-O1_ENERGY_i,NH-O2_ENERGY_i,O-NH1_ENERGY_i,O-NH2_ENERGY_i,DSSP_PHI_i,DSSP_PSI_i,REL_ASA_i+1,ABS_ASA_i+1,A_HELIX_SS_i+1,B_BRIDGE_SS_i+1,STRAND_SS_i+1,3_10_HELIX_SS_i+1,PI_HELIX_SS_i+1,TURN_SS_i+1,BEND_SS_i+1,NONE_SS_i+1,NH-O1_ENERGY_i+1,NH-O2_ENERGY_i+1,O-NH1_ENERGY_i+1,O-NH2_ENERGY_i+1,DSSP_PHI_i+1,DSSP_PSI_i+1,C_RING,CA_RING,CB_RING,N_RING,H_RING,HA_RING,HA2_RING,HA3_RING,AVG_B_i-1,AVG_B_i,AVG_B_i+1,RESNAME_i-20,RESNAME_i-19,RESNAME_i-18,RESNAME_i-17,RESNAME_i-16,RESNAME_i-15,RESNAME_i-14,RESNAME_i-13,RESNAME_i-12,RESNAME_i-11,RESNAME_i-10,RESNAME_i-9,RESNAME_i-8,RESNAME_i-7,RESNAME_i-6,RESNAME_i-5,RESNAME_i-4,RESNAME_i-3,RESNAME_i-2,RESNAME_i-1,RESNAME_i+1,RESNAME_i+2,RESNAME_i+3,RESNAME_i+4,RESNAME_i+5,RESNAME_i+6,RESNAME_i+7,RESNAME_i+8,RESNAME_i+9,RESNAME_i+10,RESNAME_i+11,RESNAME_i+12,RESNAME_i+13,RESNAME_i+14,RESNAME_i+15,RESNAME_i+16,RESNAME_i+17,RESNAME_i+18,RESNAME_i+19,RESNAME_i+20,HA,H,CA,CB,C,N,MATCHED_BMRB,BMRB_RES_NUM,RCI_S2,pH
0,1ekg,1ekg_A.pdb,LEU,90,A,,ASP,0,0,0,0,0.0,0.0,-0.9932657110039284,0.11585865243416506,0.15541710431865477,-0.9878489376849096,-0.9906331766131176,0.13655002524131515,0,0,0,0,0,0,0.8743747939623224,-0.4852511923564395,1,0.6031170928821642,-0.7976526639292111,1,0.5582204423158644,0.8296926767066711,1,-0.997794616730786,0.06637697509727263,1,0,0,0,0,0,0.0,0.0,0.0,0,0.0,0.0,0.0,0.0,0,0.0,1.831984519958496,-0.912732752891518,-0.8101637703956455,1,-2.565580738191012,0.0,0.0,0.0,0,0.0,0,-0.1,0.6376425799491032,0,0,0,0,0,0,0,0,0,0,0,0,0,0,0,0,0,0,0,0,-1,-2,-3,-4,-1,-2,-3,-4,-3,2,4,-2,2,0,-3,-2,-1,-2,-1,1,-2,-2,1,6,-3,0,2,-1,-1,-3,-4,-1,-3,-3,-1,0,-1,-4,-3,-3,4.32,8.16,55.1,42.4,177.6,121.8,0,0,0,0,0,0,0,0.0,0,0,0,14,0.6372607307967325,2,12,0,0,0,0,0,0,0,0,0,0,0,0,0,0,0,0,0.5792682926829268,110.64024390243901,0.0,0.0,0.0,0.0,0.0,0.0,0.0,1.0,0.0,-0.1,0.0,-0.0,360.0,173.3,0.5276073619631901,98.66257668711656,0.0,0.0,0.0,0.0,0.0,0.0,0.0,1.0,-0.1,-2.3,-0.0,-0.2,-81.1,172.2,-0.00699280935958549,-0.011068925819553318,0.0017783731033973469,-0.013788144658036648,,-0.03594432839326341,,,0,40.11277777777778,33.4375,NONE,NONE,NONE,NONE,NONE,NONE,NONE,NONE,NONE,NONE,NONE,NONE,NONE,NONE,NONE,NONE,NONE,NONE,NONE,NONE,ASP,GLU,THR,THR,TYR,GLU,ARG,LEU,ALA,GLU,GLU,THR,LEU,ASP,SER,LEU,ALA,GLU,PHE,PHE,,,,,,,0,,,5.0
1,1ekg,1ekg_A.pdb,ASP,91,A,LEU,GLU,0.0,0.0,-0.9932657110039284,0.11585865243416506,0.15541710431865477,-0.9878489376849096,-0.9906331766131176,0.13655002524131515,0.4013812159116136,-0.9159110871221696,0.8537205237026069,-0.520731473418831,0.8743747939623224,-0.4852511923564395,1,0.6031170928821642,-0.7976526639292111,1,0.5582204423158644,0.8296926767066711,1,-0.997794616730786,0.06637697509727263,1,0.032086975740782196,0.9994850804228197,1,-0.9744034837311443,0.2248062518984061,1,1.831984519958496,-0.912732752891518,-0.8101637703956455,1,-2.565580738191012,0.0,0.0,0.0,0,0.0,0.0,0.0,0.0,0,0.0,2.2098968029022217,-0.984375966120619,-0.9059479093654873,1,-1.8236824366292275,0.0,0.0,0.0,0,0.0,-0.1,0.6376425799491032,0.8490513082237132,-1,-2,-3,-4,-1,-2,-3,-4,-3,2,4,-2,2,0,-3,-2,-1,-2,-1,1,-2,-2,1,6,-3,0,2,-1,-1,-3,-4,-1,-3,-3,-1,0,-1,-4,-3,-3,-1,0,0,2,-4,2,5,-2,0,-3,-3,1,-2,-3,-1,0,-1,-3,-2,-2,4.71,8.34,54.2,41.1,176.3,120.4,0,0,0.0,0,0,0,14,0.6372607307967325,2,12,10,8,0.7932802792420688,5,13,0.5792682926829268,110.64024390243901,0.0,0.0,0.0,0.0,0.0,0.0,0.0,1.0,0.0,-0.1,0.0,-0.0,360.0,173.3,0.5276073619631901,98.66257668711656,0.0,0.0,0.0,0.0,0.0,0.0,0.0,1.0,-0.1,-2.3,-0.0,-0.2,-81.1,172.2,0.5773195876288659,123.5463917525773,1.0,0.0,0.0,0.0,0.0,0.0,0.0,0.0,-0.2,-2.5,-0.2,-0.2,-66.3,-31.4,-0.00880010781513455,-0.007468261178163509,-0.0032498721813016976,-0.004878765872044268,-0.022843312117221334,-0.022976623591353412,,,40.11277777777778,33.4375,33.62733333333333,NONE,NONE,NONE,NONE,NONE,NONE,NONE,NONE,NONE,NONE,NONE,NONE,NONE,NONE,NONE,NONE,NONE,NONE,NONE,LEU,GLU,THR,THR,TYR,GLU,ARG,LEU,ALA,GLU,GLU,THR,LEU,ASP,SER,LEU,ALA,GLU,PHE,PHE,GLU,,,,,,,0,,,5.0
2,1ekg,1ekg_A.pdb,GLU,92,A,ASP,THR,0.15541710431865477,-0.9878489376849096,-0.9906331766131176,0.13655002524131515,0.4013812159116136,-0.9159110871221696,0.8537205237026069,-0.520731473418831,0.4063469769041426,-0.9137188486404689,0.7080192979316222,-0.7061930853218634,0.5582204423158644,0.8296926767066711,1,-0.997794616730786,0.06637697509727263,1,0.032086975740782196,0.9994850804228197,1,-0.9744034837311443,0.2248062518984061,1,0.4172215347420894,-0.9088048145490073,1,0.0,0.0,0,2.2098968029022217,-0.984375966120619,-0.9059479093654873,1,-1.8236824366292275,4.709611415863037,-0.1066390396298926,-0.30333703490093666,1,-0.14654701146648486,0.0,0.0,0.0,0,0.0,2.0824286937713623,-0.9669796694970493,-0.8293146863657002,1,-1.9980688749259077,0.0,0.0,0.0,0,0.0,0.6376425799491032,0.8490513082237132,0.8805791506397709,-2,-2,1,6,-3,0,2,-1,-1,-3,-4,-1,-3,-3,-1,0,-1,-4,-3,-3,-1,0,0,2,-4,2,5,-2,0,-3,-3,1,-2,-3,-1,0,-1,-3,-2,-2,0,-1,0,-1,-1,-1,-1,-2,-2,-1,-1,-1,-1,-2,-1,1,5,-2,-2,0,4.64,8.42,56.6,29.9,176.6,120.2,0,14,0.6372607307967325,2,12,10,8,0.7932802792420688,5,13,0,13,0.9257405596379694,0,13,0.5276073619631901,98.66257668711656,0.0,0.0,0.0,0.0,0.0,0.0,0.0,1.0,-0.1,-2.3,-0.0,-0.2,-81.1,172.2,0.5773195876288659,123.5463917525773,1.0,0.0,0.0,0.0,0.0,0.0,0.0,0.0,-0.2,-2.5,-0.2,-0.2,-66.3,-31.4,0.5633802816901409,91.83098591549296,1.0,0.0,0.0,0.0,0.0,0.0,0.0,0.0,-0.2,-2.0,-0.2,-0.2,-66.0,-44.9,-0.016233838809967975,-0.021689743313100564,-0.008182296081331737,-0.00824684501872047,-0.03904889849494185,-0.10895545452873623,,,33.4375,33.62733333333333,27.890714285714278,NONE,NONE,NONE,NONE,NONE,NONE,NONE,NONE,NONE,NONE,NONE,NONE,NONE,NONE,NONE,NONE,NONE,NONE,LEU,ASP,THR,THR,TYR,GLU,ARG,LEU,ALA,GLU,GLU,THR,LEU,ASP,SER,LEU,ALA,GLU,PHE,PHE,GLU,ASP,3.97,8.84,61.1,30.1,,120.73,1,4.0,0.914659043834,5.0
3,1ekg,1ekg_A.pdb,THR,93,A,GLU,THR,0.4013812159116136,-0.9159110871221696,0.8537205237026069,-0.520731473418831,0.4063469769041426,-0.9137188486404689,0.7080192979316222,-0.7061930853218634,0.3893251691564907,-0.9211003814249943,0.7099875068300044,-0.7042142714723371,0.032086975740782196,0.9994850804228197,1,-0.9744034837311443,0.2248062518984061,1,0.4172215347420894,-0.9088048145490073,1,0.0,0.0,0,0.5762632300681128,-0.8172641492635446,1,0.0,0.0,0,2.0824286937713623,-0.9669796694970493,-0.8293146863657002,1,-1.9980688749259077,0.0,0.0,0.0,0,0.0,0.0,0.0,0.0,0,0.0,2.207364082336426,-0.9240206100732398,-0.8297250047644411,1,-1.9345310723001723,2.177934408187866,-0.542575930806242,-0.9302563230759315,1,-1.4887225495407679,0.8490513082237132,0.8805791506397709,0.8915389278399908,-1,0,0,2,-4,2,5,-2,0,-3,-3,1,-2,-3,-1,0,-1,-3,-2,-2,0,-1,0,-1,-1,-1,-1,-2,-2,-1,-1,-1,-1,-2,-1,1,5,-2,-2,0,0,-1,0,-1,-1,-1,-1,-2,-2,-1,-1,-1,-1,-2,-1,1,5,-2,-2,0,4.47,8.15,61.8,69.8,174.7,113.6,10,8,0.7932802792420688,5,13,0,13,0.9257405596379694,0,13,1,15,0.9194980737886858,4,12,0.5773195876288659,123.5463917525773,1.0,0.0,0.0,0.0,0.0,0.0,0.0,0.0,-0.2,-2.5,-0.2,-0.2,-66.3,-31.4,0.5633802816901409,91.83098591549296,1.0,0.0,0.0,0.0,0.0,0.0,0.0,0.0,-0.2,-2.0,-0.2,-0.2,-66.0,-44.9,0.4014084507042254,65.42957746478874,1.0,0.0,0.0,0.0,0.0,0.0,0.0,0.0,-0.2,-2.8,-0.2,-0.3,-67.1,-44.8,0.0014876016210211643,-0.004108011198710577,-0.0006875076979526876,-0.007278087912222431,-0.038700933719083175,-0.015570507698669958,,,33.62733333333333,27.890714285714278,20.87285714285714,NONE,NONE,NONE,NONE,NONE,NONE,NONE,NONE,NONE,NONE,NONE,NONE,NONE,NONE,NONE,NONE,NONE,LEU,ASP,GLU,THR,TYR,GLU,ARG,LEU,ALA,GLU,GLU,THR,LEU,ASP,SER,LEU,ALA,GLU,PHE,PHE,GLU,ASP,LEU,4.03,8.21,66.1,68.5,177.7,114.83,1,5.0,0.914516451679,5.0
4,1ekg,1ekg_A.pdb,THR,94,A,THR,TYR,0.4063469769041426,-0.9137188486404689,0.7080192979316222,-0.7061930853218634,0.3893251691564907,-0.9211003814249943,0.7099875068300044,-0.7042142714723371,0.5811845072521029,-0.8137718160087202,0.6527794631079613,-0.7575480001587238,0.4172215347420894,-0.9088048145490073,1,0.0,0.0,0,0.5762632300681128,-0.8172641492635446,1,0.0,0.0,0,-0.9441768354958927,0.32943907374955084,1,0.23502376449256165,0.9719896244938754,1,2.207364082336426,-0.9240206100732398,-0.8297250047644411,1,-1.9345310723001723,0.0,0.0,0.0,0,0.0,2.177934408187866,-0.542575930806242,-0.9302563230759315,1,-1.4887225495407679,2.070636034011841,-0.9957438289987567,-0.9721699607002653,1,-2.188428258157173,2.2098968029022217,-0.9059479093654873,-0.984375966120619,1,-1.8236824366292275,0.8805791506397709,0.8915389278399908,0.8962630807023604,0,-1,0,-1,-1,-1,-1,-2,-2,-1,-1,-1,-1,-2,-1,1,5,-2,-2,0,0,-1,0,-1,-1,-1,-1,-2,-2,-1,-1,-1,-1,-2,-1,1,5,-2,-2,0,-2,-2,-2,-3,-2,-1,-2,-3,2,-1,-1,-2,-1,3,-3,-2,-2,2,7,-1,4.47,8.15,61.8,69.8,174.7,113.6,0,13,0.9257405596379694,0,13,1,15,0.9194980737886858,4,12,16,11,0.9702156660104416,13,14,0.5633802816901409,91.83098591549296,1.0,0.0,0.0,0.0,0.0,0.0,0.0,0.0,-0.2,-2.0,-0.2,-0.2,-66.0,-44.9,0.4014084507042254,65.42957746478874,1.0,0.0,0.0,0.0,0.0,0.0,0.0,0.0,-0.2,-2.8,-0.2,-0.3,-67.1,-44.8,0.0,0.0,1.0,0.0,0.0,0.0,0.0,0.0,0.0,0.0,-2.3,-3.0,-0.2,-0.3,-54.5,-49.2,0.020261061247008556,0.019006649246187425,0.013664762076991577,0.0026210185666612363,0.000525177609352806,0.07472443912484905,,,27.890714285714278,20.87285714285714,17.13904761904762,NONE,NONE,NONE,NONE,NONE,NONE,NONE,NONE,NONE,NONE,NONE,NONE,NONE,NONE,NONE,NONE,LEU,ASP,GLU,THR,TYR,GLU,ARG,LEU,ALA,GLU,GLU,THR,LEU,ASP,SER,LEU,ALA,GLU,PHE,PHE,GLU,ASP,LEU,ALA,3.84,8.25,66.7,68.7,,120.73,1,6.0,0.914603878191,5.0
5,1ekg,1ekg_A.pdb,TYR,95,A,THR,GLU,0.3893251691564907,-0.9211003814249943,0.7099875068300044,-0.7042142714723371,0.5811845072521029,-0.8137718160087202,0.6527794631079613,-0.7575480001587238,0.5094231479980702,-0.8605161568987164,0.7279908982265704,-0.6855867939942187,0.5762632300681128,-0.8172641492635446,1,0.0,0.0,0,-0.9441768354958927,0.32943907374955084,1,0.23502376449256165,0.9719896244938754,1,0.43121279807931895,-0.9022502550692931,1,-0.6731966168519145,-0.7394635319332095,1,2.070636034011841,-0.9957438289987567,-0.9721699607002653,1,-2.188428258157173,0.0,0.0,0.0,0,0.0,2.2098968029022217,-0.9059479093654873,-0.984375966120619,1,-1.8236824366292275,1.969220519065857,-0.9834301921418332,-0.9376530688934238,1,-2.382439614708936,2.0824286937713623,-0.8293146863657002,-0.9669796694970493,1,-1.9980688749259077,0.8915389278399908,0.8962630807023604,0.8949514679254479,0,-1,0,-1,-1,-1,-1,-2,-2,-1,-1,-1,-1,-2,-1,1,5,-2,-2,0,-2,-2,-2,-3,-2,-1,-2,-3,2,-1,-1,-2,-1,3,-3,-2,-2,2,7,-1,-1,0,0,2,-4,2,5,-2,0,-3,-3,1,-2,-3,-1,0,-1,-3,-2,-2,4.66,8.12,57.9,38.8,175.9,120.3,1,15,0.9194980737886858,4,12,16,11,0.9702156660104416,13,14,11,15,0.8899205902027557,7,19,0.4014084507042254,65.42957746478874,1.0,0.0,0.0,0.0,0.0,0.0,0.0,0.0,-0.2,-2.8,-0.2,-0.3,-67.1,-44.8,0.0,0.0,1.0,0.0,0.0,0.0,0.0,0.0,0.0,0.0,-2.3,-3.0,-0.2,-0.3,-54.5,-49.2,0.3402061855670103,72.80412371134021,1.0,0.0,0.0,0.0,0.0,0.0,0.0,0.0,-2.5,-2.4,-0.2,-0.2,-59.4,-43.3,0.0870724603774554,-0.03506918545016913,-0.31635431003235115,-0.0038299079802978572,-0.11336551951413973,-0.005979842326024408,,,20.87285714285714,17.13904761904762,26.06933333333333,NONE,NONE,NONE,NONE,NONE,NONE,NONE,NONE,NONE,NONE,NONE,NONE,NONE,NONE,NONE,LEU,ASP,GLU,THR,THR,GLU,ARG,LEU,ALA,GLU,GLU,THR,LEU,ASP,SER,LEU,ALA,GLU,PHE,PHE,GLU,ASP,LEU,ALA,ASP,3.87,8.16,62.5,37.7,,120.73,1,7.0,0.909818804204,5.0
6,1ekg,1ekg_A.pdb,GLU,96,A,TYR,ARG,0.5811845072521029,-0.8137718160087202,0.6527794631079613,-0.7575480001587238,0.5094231479980702,-0.8605161568987164,0.7279908982265704,-0.6855867939942187,0.4666441470038488,-0.8844451594457682,0.6287630992200476,-0.7775969168272213,-0.9441768354958927,0.32943907374955084,1,0.23502376449256165,0.9719896244938754,1,0.43121279807931895,-0.9022502550692931,1,-0.6731966168519145,-0.7394635319332095,1,0.47096400338042366,-0.8821524287332004,1,0.4540662114114762,-0.8909679431126738,1,1.969220519065857,-0.9834301921418332,-0.9376530688934238,1,-2.382439614708936,0.0,0.0,0.0,0,0.0,2.0824286937713623,-0.8293146863657002,-0.9669796694970493,1,-1.9980688749259077,2.088628053665161,-0.9105643185218415,-0.8211260035060379,1,-1.8883070378098463,2.2865493297576904,-0.8323760405915083,-0.9448184531001927,1,-1.5929416124850144,0.8962630807023604,0.8949514679254479,0.8937808421638647,-2,-2,-2,-3,-2,-1,-2,-3,2,-1,-1,-2,-1,3,-3,-2,-2,2,7,-1,-1,0,0,2,-4,2,5,-2,0,-3,-3,1,-2,-3,-1,0,-1,-3,-2,-2,-1,5,0,-2,-3,1,0,-2,0,-3,-2,2,-1,-3,-2,-1,-1,-3,-2,-3,4.64,8.42,56.6,29.9,176.6,120.2,16,11,0.9702156660104416,13,14,11,15,0.8899205902027557,7,19,0,20,0.9627634129188813,4,16,0.0,0.0,1.0,0.0,0.0,0.0,0.0,0.0,0.0,0.0,-2.3,-3.0,-0.2,-0.3,-54.5,-49.2,0.3402061855670103,72.80412371134021,1.0,0.0,0.0,0.0,0.0,0.0,0.0,0.0,-2.5,-2.4,-0.2,-0.2,-59.4,-43.3,0.6612903225806451,175.24193548387095,1.0,0.0,0.0,0.0,0.0,0.0,0.0,0.0,-2.0,-2.5,-0.2,-0.2,-62.2,-51.0,0.038125248875763997,0.06125889253162553,0.006689582108947321,0.03432445840688388,-0.02893094429412106,0.35246597059064694,,,17.13904761904762,26.06933333333333,32.10875,NONE,NONE,NONE,NONE,NONE,NONE,NONE,NONE,NONE,NONE,NONE,NONE,NONE,NONE,LEU,ASP,GLU,THR,THR,TYR,ARG,LEU,ALA,GLU,GLU,THR,LEU,ASP,SER,LEU,ALA,GLU,PHE,PHE,GLU,ASP,LEU,ALA,ASP,LYS,3.47,8.36,60.1,29.4,175.4,118.43,1,8.0,0.90172558731,5.0
7,1ekg,1ekg_A.pdb,ARG,97,A,GLU,LEU,0.5094231479980702,-0.8605161568987164,0.7279908982265704,-0.6855867939942187,0.4666441470038488,-0.8844451594457682,0.6287630992200476,-0.7775969168272213,0.4827775007386135,-0.8757430472350769,0.7076100051597284,-0.7066031988307506,0.43121279807931895,-0.9022502550692931,1,-0.6731966168519145,-0.7394635319332095,1,0.47096400338042366,-0.8821524287332004,1,0.4540662114114762,-0.8909679431126738,1,0.4420607061928114,-0.8969851347933883,1,-0.999454022066231,0.03304024478774051,1,2.088628053665161,-0.9105643185218415,-0.8211260035060379,1,-1.8883070378098463,0.0,0.0,0.0,0,0.0,2.2865493297576904,-0.8323760405915083,-0.9448184531001927,1,-1.5929416124850144,2.1348910331726074,-0.9771148720216826,-0.9108009003740746,1,-1.970395833206642,2.070636034011841,-0.9721699607002653,-0.9957438289987567,1,-2.188428258157173,0.8949514679254479,0.8937808421638647,0.8934897729780552,-1,0,0,2,-4,2,5,-2,0,-3,-3,1,-2,-3,-1,0,-1,-3,-2,-2,-1,5,0,-2,-3,1,0,-2,0,-3,-2,2,-1,-3,-2,-1,-1,-3,-2,-3,-1,-2,-3,-4,-1,-2,-3,-4,-3,2,4,-2,2,0,-3,-2,-1,-2,-1,1,4.34,8.23,56.0,30.9,176.3,120.5,11,15,0.8899205902027557,7,19,0,20,0.9627634129188813,4,16,11,20,0.9227231071780287,19,12,0.3402061855670103,72.80412371134021,1.0,0.0,0.0,0.0,0.0,0.0,0.0,0.0,-2.5,-2.4,-0.2,-0.2,-59.4,-43.3,0.6612903225806451,175.24193548387095,1.0,0.0,0.0,0.0,0.0,0.0,0.0,0.0,-2.0,-2.5,-0.2,-0.2,-62.2,-51.0,0.13414634146341464,25.621951219512198,1.0,0.0,0.0,0.0,0.0,0.0,0.0,0.0,-2.8,-2.3,-0.2,-0.2,-61.1,-45.0,0.025866415303887506,0.03031797756586445,0.01516878086533906,0.027043654554630082,0.16107476937684795,0.07315160864178352,,,26.06933333333333,32.10875,16.948947368421052,NONE,NONE,NONE,NONE,NONE,NONE,NONE,NONE,NONE,NONE,NONE,NONE,NONE,LEU,ASP,GLU,THR,THR,TYR,GLU,LEU,ALA,GLU,GLU,THR,LEU,ASP,SER,LEU,ALA,GLU,PHE,PHE,GLU,ASP,LEU,ALA,ASP,LYS,PRO,4.06,7.35,59.2,30.1,178.3,117.93,1,9.0,0.898315490585,5.0
8,1ekg,1ekg_A.pdb,LEU,98,A,ARG,ALA,0.4666441470038488,-0.8844451594457682,0.6287630992200476,-0.7775969168272213,0.4827775007386135,-0.8757430472350769,0.7076100051597284,-0.7066031988307506,0.43770522383196825,-0.8991185333593156,0.7758017747889269,-0.6309767081551831,0.47096400338042366,-0.8821524287332004,1,0.4540662114114762,-0.8909679431126738,1,0.4420607061928114,-0.8969851347933883,1,-0.999454022066231,0.03304024478774051,1,0.0,0.0,0,0.0,0.0,0,2.1348910331726074,-0.9771148720216826,-0.9108009003740746,1,-1.970395833206642,0.0,0.0,0.0,0,0.0,2.070636034011841,-0.9721699607002653,-0.9957438289987567,1,-2.188428258157173,1.8790340423583984,-0.9908161488671993,-0.7690100838253251,1,-2.487526080143306,1.969220519065857,-0.9376530688934238,-0.9834301921418332,1,-2.382439614708936,0.8937808421638647,0.8934897729780552,0.8980763113522429,-1,5,0,-2,-3,1,0,-2,0,-3,-2,2,-1,-3,-2,-1,-1,-3,-2,-3,-1,-2,-3,-4,-1,-2,-3,-4,-3,2,4,-2,2,0,-3,-2,-1,-2,-1,1,4,-1,-2,-2,0,-1,-1,0,-2,-1,-1,-1,-1,-2,-1,1,0,-3,-2,0,4.32,8.16,55.1,42.4,177.6,121.8,0,20,0.9627634129188813,4,16,11,20,0.9227231071780287,19,12,23,15,0.9023402216514077,22,16,0.6612903225806451,175.24193548387095,1.0,0.0,0.0,0.0,0.0,0.0,0.0,0.0,-2.0,-2.5,-0.2,-0.2,-62.2,-51.0,0.13414634146341464,25.621951219512198,1.0,0.0,0.0,0.0,0.0,0.0,0.0,0.0,-2.8,-2.3,-0.2,-0.2,-61.1,-45.0,0.0,0.0,1.0,0.0,0.0,0.0,0.0,0.0,0.0,0.0,-3.0,-2.7,-0.3,-0.2,-64.0,-39.1,0.022601806717713484,0.08570593465118281,0.11120593712289017,0.043925202144346503,0.3487309247973053,0.31259217098118924,,,32.10875,16.948947368421052,16.198,NONE,NONE,NONE,NONE,NONE,NONE,NONE,NONE,NONE,NONE,NONE,NONE,LEU,ASP,GLU,THR,THR,TYR,GLU,ARG,ALA,GLU,GLU,THR,LEU,ASP,SER,LEU,ALA,GLU,PHE,PHE,GLU,ASP,LEU,ALA,ASP,LYS,PRO,TYR,3.71,7.96,57.8,42.3,178.3,119.33,1,10.0,0.90144860986,5.0
9,1ekg,1ekg_A.pdb,ALA,99,A,LEU,GLU,0.4827775007386135,-0.8757430472350769,0.7076100051597284,-0.7066031988307506,0.43770522383196825,-0.8991185333593156,0.7758017747889269,-0.6309767081551831,0.4098520176260738,-0.9121520288021271,0.6849868755819725,-0.7285554064588686,0.4420607061928114,-0.8969851347933883,1,-0.999454022066231,0.03304024478774051,1,0.0,0.0,0,0.0,0.0,0,-0.9868358852771558,-0.1617248760372136,1,-0.9913533593838229,0.1312193462809849,1,1.8790340423583984,-0.9908161488671993,-0.7690100838253251,1,-2.487526080143306,0.0,0.0,0.0,0,0.0,1.969220519065857,-0.9376530688934238,-0.9834301921418332,1,-2.382439614708936,2.064008951187134,-0.967004340599815,-0.8777077962925138,1,-2.080823960971491,2.088628053665161,-0.8211260035060379,-0.9105643185218415,1,-1.8883070378098463,0.8934897729780552,0.8980763113522429,0.8972735431594036,-1,-2,-3,-4,-1,-2,-3,-4,-3,2,4,-2,2,0,-3,-2,-1,-2,-1,1,4,-1,-2,-2,0,-1,-1,0,-2,-1,-1,-1,-1,-2,-1,1,0,-3,-2,0,-1,0,0,2,-4,2,5,-2,0,-3,-3,1,-2,-3,-1,0,-1,-3,-2,-2,4.32,8.24,52.5,19.1,177.8,123.8,11,20,0.9227231071780287,19,12,23,15,0.9023402216514077,22,16,13,18,0.9240854297768767,8,23,0.13414634146341464,25.621951219512198,1.0,0.0,0.0,0.0,0.0,0.0,0.0,0.0,-2.8,-2.3,-0.2,-0.2,-61.1,-45.0,0.0,0.0,1.0,0.0,0.0,0.0,0.0,0.0,0.0,0.0,-3.0,-2.7,-0.3,-0.2,-64.0,-39.1,0.4639175257731959,99.27835051546393,1.0,0.0,0.0,0.0,0.0,0.0,0.0,0.0,-2.4,-2.7,-0.3,-0.2,-65.8,-46.8,0.031675294214756934,0.0923347830424023,0.11529494007763103,0.04193973241183248,0.4679730921190979,0.3481883414341521,,,16.948947368421052,16.198,27.090666666666664,NONE,NONE,NONE,NONE,NONE,NONE,NONE,NONE,NONE,NONE,NONE,LEU,ASP,GLU,THR,THR,TYR,GLU,ARG,LEU,GLU,GLU,THR,LEU,ASP,SER,LEU,ALA,GLU,PHE,PHE,GLU,ASP,LEU,ALA,ASP,LYS,PRO,TYR,THR,3.62,9.17,55.9,17.8,173.3,124.23,1,11.0,0.906628960469,5.0
10,1ekg,1ekg_A.pdb,GLU,100,A,ALA,GLU,0.43770522383196825,-0.8991185333593156,0.7758017747889269,-0.6309767081551831,0.4098520176260738,-0.9121520288021271,0.6849868755819725,-0.7285554064588686,0.4605893990081218,-0.8876133198196933,0.7893912278274761,-0.613890453932157,0.0,0.0,0,0.0,0.0,0,-0.9868358852771558,-0.1617248760372136,1,-0.9913533593838229,0.1312193462809849,1,0.41437159440656796,-0.9101077857863643,1,0.35659131810917316,-0.9342604732349338,1,2.064008951187134,-0.967004340599815,-0.8777077962925138,1,-2.080823960971491,4.688573837280273,-0.24927757312744522,-0.2559281823280683,1,-0.2996722947369835,2.088628053665161,-0.8211260035060379,-0.9105643185218415,1,-1.8883070378098463,2.0051238536834717,-0.9377465429389655,-0.9036903685803925,1,-2.189882529384656,2.1348910331726074,-0.9108009003740746,-0.9771148720216826,1,-1.970395833206642,0.8980763113522429,0.8972735431594036,0.8958185706261348,4,-1,-2,-2,0,-1,-1,0,-2,-1,-1,-1,-1,-2,-1,1,0,-3,-2,0,-1,0,0,2,-4,2,5,-2,0,-3,-3,1,-2,-3,-1,0,-1,-3,-2,-2,-1,0,0,2,-4,2,5,-2,0,-3,-3,1,-2,-3,-1,0,-1,-3,-2,-2,4.64,8.42,56.6,29.9,176.6,120.2,23,15,0.9023402216514077,22,16,13,18,0.9240854297768767,8,23,2,19,0.9013387752715915,9,12,0.0,0.0,1.0,0.0,0.0,0.0,0.0,0.0,0.0,0.0,-3.0,-2.7,-0.3,-0.2,-64.0,-39.1,0.4639175257731959,99.27835051546393,1.0,0.0,0.0,0.0,0.0,0.0,0.0,0.0,-2.4,-2.7,-0.3,-0.2,-65.8,-46.8,0.5360824742268041,114.72164948453607,1.0,0.0,0.0,0.0,0.0,0.0,0.0,0.0,-2.5,-1.9,-0.2,-0.2,-62.6,-37.9,-0.00813402917050562,0.004935814452834524,0.004114717373921007,0.022055333543273516,0.20290674495648486,-0.008319933630779758,,,16.198,27.090666666666664,21.32,NONE,NONE,NONE,NONE,NONE,NONE,NONE,NONE,NONE,NONE,LEU,ASP,GLU,THR,THR,TYR,GLU,ARG,LEU,ALA,GLU,THR,LEU,ASP,SER,LEU,ALA,GLU,PHE,PHE,GLU,ASP,LEU,ALA,ASP,LYS,PRO,TYR,THR,PHE,3.94,8.13,60.2,29.1,178.9,118.43,1,12.0,0.905045877981,5.0
11,1ekg,1ekg_A.pdb,GLU,101,A,GLU,THR,0.4098520176260738,-0.9121520288021271,0.6849868755819725,-0.7285554064588686,0.4605893990081218,-0.8876133198196933,0.7893912278274761,-0.613890453932157,0.4207172315188932,-0.9071918270702608,0.6752017852875052,-0.7376330721602481,-0.9868358852771558,-0.1617248760372136,1,-0.9913533593838229,0.1312193462809849,1,0.41437159440656796,-0.9101077857863643,1,0.35659131810917316,-0.9342604732349338,1,0.5211476840483854,-0.8534665145223943,1,0.0,0.0,0,2.0051238536834717,-0.9377465429389655,-0.9036903685803925,1,-2.189882529384656,0.0,0.0,0.0,0,0.0,2.1348910331726074,-0.9108009003740746,-0.9771148720216826,1,-1.970395833206642,2.3251774311065674,-0.9513705866889601,-0.8134094633064093,1,-1.5262162969711566,2.129347562789917,-0.8381146531852509,-0.9063524183184664,1,-1.8096178242194518,0.8972735431594036,0.8958185706261348,0.895514083622001,-1,0,0,2,-4,2,5,-2,0,-3,-3,1,-2,-3,-1,0,-1,-3,-2,-2,-1,0,0,2,-4,2,5,-2,0,-3,-3,1,-2,-3,-1,0,-1,-3,-2,-2,0,-1,0,-1,-1,-1,-1,-2,-2,-1,-1,-1,-1,-2,-1,1,5,-2,-2,0,4.64,8.42,56.6,29.9,176.6,120.2,13,18,0.9240854297768767,8,23,2,19,0.9013387752715915,9,12,17,20,0.920841519039347,22,15,0.4639175257731959,99.27835051546393,1.0,0.0,0.0,0.0,0.0,0.0,0.0,0.0,-2.4,-2.7,-0.3,-0.2,-65.8,-46.8,0.5360824742268041,114.72164948453607,1.0,0.0,0.0,0.0,0.0,0.0,0.0,0.0,-2.5,-1.9,-0.2,-0.2,-62.6,-37.9,0.0,0.0,1.0,0.0,0.0,0.0,0.0,0.0,0.0,0.0,-2.3,-1.8,-0.2,-0.2,-65.1,-47.5,-0.028815497758604078,-0.03531708503607284,-0.040158035867488284,-0.010137277659591867,-0.033712851750549104,-0.10186677855387327,,,27.090666666666664,21.32,15.287142857142856,NONE,NONE,NONE,NONE,NONE,NONE,NONE,NONE,NONE,LEU,ASP,GLU,THR,THR,TYR,GLU,ARG,LEU,ALA,GLU,THR,LEU,ASP,SER,LEU,ALA,GLU,PHE,PHE,GLU,ASP,LEU,ALA,ASP,LYS,PRO,TYR,THR,PHE,GLU,4.17,8.41,60.0,31.1,176.6,118.13,1,13.0,0.897152275149,5.0
12,1ekg,1ekg_A.pdb,THR,102,A,GLU,LEU,0.4605893990081218,-0.8876133198196933,0.7893912278274761,-0.613890453932157,0.4207172315188932,-0.9071918270702608,0.6752017852875052,-0.7376330721602481,0.36960450837714387,-0.9291891666325484,0.8075442717256326,-0.5898069592698255,0.41437159440656796,-0.9101077857863643,1,0.35659131810917316,-0.9342604732349338,1,0.5211476840483854,-0.8534665145223943,1,0.0,0.0,0,0.4255753075905196,-0.904923011956948,1,-0.9913228583350889,0.13144957414289807,1,2.3251774311065674,-0.9513705866889601,-0.8134094633064093,1,-1.5262162969711566,3.3287718296051025,-0.4595395327667466,-0.8833520481160361,1,-0.47340919695849054,2.129347562789917,-0.8381146531852509,-0.9063524183184664,1,-1.8096178242194518,2.317614793777466,-0.9254178177383005,-0.8195786024293202,1,-1.4945989044723147,2.064008951187134,-0.8777077962925138,-0.967004340599815,1,-2.080823960971491,0.8958185706261348,0.895514083622001,0.8951067040227567,-1,0,0,2,-4,2,5,-2,0,-3,-3,1,-2,-3,-1,0,-1,-3,-2,-2,0,-1,0,-1,-1,-1,-1,-2,-2,-1,-1,-1,-1,-2,-1,1,5,-2,-2,0,-1,-2,-3,-4,-1,-2,-3,-4,-3,2,4,-2,2,0,-3,-2,-1,-2,-1,1,4.47,8.15,61.8,69.8,174.7,113.6,2,19,0.9013387752715915,9,12,17,20,0.920841519039347,22,15,22,17,0.8787304454810535,23,16,0.5360824742268041,114.72164948453607,1.0,0.0,0.0,0.0,0.0,0.0,0.0,0.0,-2.5,-1.9,-0.2,-0.2,-62.6,-37.9,0.0,0.0,1.0,0.0,0.0,0.0,0.0,0.0,0.0,0.0,-2.3,-1.8,-0.2,-0.2,-65.1,-47.5,0.006097560975609756,1.1646341463414636,1.0,0.0,0.0,0.0,0.0,0.0,0.0,0.0,-2.7,-2.9,-0.2,-0.2,-68.3,-36.1,-0.00728763033355038,-0.045984473186835864,-0.02493802993743413,-0.030101512728594747,-0.1607552571899552,-0.24082621025548429,,,21.32,15.287142857142856,20.23263157894737,NONE,NONE,NONE,NONE,NONE,NONE,NONE,NONE,LEU,ASP,GLU,THR,THR,TYR,GLU,ARG,LEU,ALA,GLU,GLU,LEU,ASP,SER,LEU,ALA,GLU,PHE,PHE,GLU,ASP,LEU,ALA,ASP,LYS,PRO,TYR,THR,PHE,GLU,ASP,3.95,8.17,68.3,69.3,,116.23,1,14.0,0.897436020253,5.0
13,1ekg,1ekg_A.pdb,LEU,103,A,THR,ASP,0.4207172315188932,-0.9071918270702608,0.6752017852875052,-0.7376330721602481,0.36960450837714387,-0.9291891666325484,0.8075442717256326,-0.5898069592698255,0.4833526572924576,-0.8754257299670373,0.7129418704386935,-0.701223138077586,0.5211476840483854,-0.8534665145223943,1,0.0,0.0,0,0.4255753075905196,-0.904923011956948,1,-0.9913228583350889,0.13144957414289807,1,0.1994405102984203,-0.9799099360920399,1,-0.9888710151176316,0.14877538593539155,1,2.317614793777466,-0.9254178177383005,-0.8195786024293202,1,-1.4945989044723147,0.0,0.0,0.0,0,0.0,2.064008951187134,-0.8777077962925138,-0.967004340599815,1,-2.080823960971491,1.9828150272369385,-0.953078576703079,-0.8820762632167569,1,-2.2529743608498047,2.0051238536834717,-0.9036903685803925,-0.9377465429389655,1,-2.189882529384656,0.895514083622001,0.8951067040227567,0.8967197948673039,0,-1,0,-1,-1,-1,-1,-2,-2,-1,-1,-1,-1,-2,-1,1,5,-2,-2,0,-1,-2,-3,-4,-1,-2,-3,-4,-3,2,4,-2,2,0,-3,-2,-1,-2,-1,1,-2,-2,1,6,-3,0,2,-1,-1,-3,-4,-1,-3,-3,-1,0,-1,-4,-3,-3,4.32,8.16,55.1,42.4,177.6,121.8,17,20,0.920841519039347,22,15,22,17,0.8787304454810535,23,16,7,21,0.9643790961491182,8,20,0.0,0.0,1.0,0.0,0.0,0.0,0.0,0.0,0.0,0.0,-2.3,-1.8,-0.2,-0.2,-65.1,-47.5,0.006097560975609756,1.1646341463414636,1.0,0.0,0.0,0.0,0.0,0.0,0.0,0.0,-2.7,-2.9,-0.2,-0.2,-68.3,-36.1,0.38650306748466257,72.2760736196319,1.0,0.0,0.0,0.0,0.0,0.0,0.0,0.0,-2.7,-2.1,-0.2,-0.2,-61.1,-44.5,0.027638738397064162,0.019047135757237346,-0.0052533330861696485,0.0026884065596364084,0.0211392112710339,0.09520240625136304,,,15.287142857142856,20.23263157894737,22.375833333333333,NONE,NONE,NONE,NONE,NONE,NONE,NONE,LEU,ASP,GLU,THR,THR,TYR,GLU,ARG,LEU,ALA,GLU,GLU,THR,ASP,SER,LEU,ALA,GLU,PHE,PHE,GLU,ASP,LEU,ALA,ASP,LYS,PRO,TYR,THR,PHE,GLU,ASP,TYR,3.82,8.46,58.6,41.5,,123.13,1,15.0,0.896553757305,5.0
14,1ekg,1ekg_A.pdb,ASP,104,A,LEU,SER,0.36960450837714387,-0.9291891666325484,0.8075442717256326,-0.5898069592698255,0.4833526572924576,-0.8754257299670373,0.7129418704386935,-0.701223138077586,0.43113754173004337,-0.9022862185088361,0.7433315677723403,-0.6689231498110337,0.4255753075905196,-0.904923011956948,1,-0.9913228583350889,0.13144957414289807,1,0.1994405102984203,-0.9799099360920399,1,-0.9888710151176316,0.14877538593539155,1,-0.991993828242157,-0.1262863600293791,1,0.0,0.0,0,1.9828150272369385,-0.953078576703079,-0.8820762632167569,1,-2.2529743608498047,0.0,0.0,0.0,0,0.0,2.0051238536834717,-0.9036903685803925,-0.9377465429389655,1,-2.189882529384656,2.2431390285491943,-0.9308947842187543,-0.8494074441634062,1,-1.6603344575915162,2.3251774311065674,-0.8134094633064093,-0.9513705866889601,1,-1.5262162969711566,0.8951067040227567,0.8967197948673039,0.8911592311553086,-1,-2,-3,-4,-1,-2,-3,-4,-3,2,4,-2,2,0,-3,-2,-1,-2,-1,1,-2,-2,1,6,-3,0,2,-1,-1,-3,-4,-1,-3,-3,-1,0,-1,-4,-3,-3,1,-1,1,0,-1,0,0,0,-1,-2,-2,0,-1,-2,-1,4,1,-3,-2,-2,4.71,8.34,54.2,41.1,176.3,120.4,22,17,0.8787304454810535,23,16,7,21,0.9643790961491182,8,20,7,17,0.9293417068530838,13,11,0.006097560975609756,1.1646341463414636,1.0,0.0,0.0,0.0,0.0,0.0,0.0,0.0,-2.7,-2.9,-0.2,-0.2,-68.3,-36.1,0.38650306748466257,72.2760736196319,1.0,0.0,0.0,0.0,0.0,0.0,0.0,0.0,-2.7,-2.1,-0.2,-0.2,-61.1,-44.5,0.19230769230769232,27.5,1.0,0.0,0.0,0.0,0.0,0.0,0.0,0.0,-1.9,-2.0,-0.2,-0.2,-64.5,-42.0,0.00261753113536721,-0.007674718664155171,-0.020385598271353,-0.0007579600306904027,-0.08809108986968042,-0.020637572942235585,,,20.23263157894737,22.375833333333333,15.146363636363635,NONE,NONE,NONE,NONE,NONE,NONE,LEU,ASP,GLU,THR,THR,TYR,GLU,ARG,LEU,ALA,GLU,GLU,THR,LEU,SER,LEU,ALA,GLU,PHE,PHE,GLU,ASP,LEU,ALA,ASP,LYS,PRO,TYR,THR,PHE,GLU,ASP,TYR,ASP,4.28,9.04,57.7,41.3,177.2,120.33,1,16.0,0.899154155236,5.0
15,1ekg,1ekg_A.pdb,SER,105,A,ASP,LEU,0.4833526572924576,-0.8754257299670373,0.7129418704386935,-0.701223138077586,0.43113754173004337,-0.9022862185088361,0.7433315677723403,-0.6689231498110337,0.43478636905558127,-0.9005336269587404,0.7148350922074005,-0.6992930651370978,0.1994405102984203,-0.9799099360920399,1,-0.9888710151176316,0.14877538593539155,1,-0.991993828242157,-0.1262863600293791,1,0.0,0.0,0,0.13986606177944821,-0.9901704321793837,1,-0.9773021416212063,0.2118502395150959,1,2.2431390285491943,-0.9308947842187543,-0.8494074441634062,1,-1.6603344575915162,0.0,0.0,0.0,0,0.0,2.3251774311065674,-0.8134094633064093,-0.9513705866889601,1,-1.5262162969711566,2.258014440536499,-0.9421439234917631,-0.8276054812540393,1,-1.6217656373757565,2.317614793777466,-0.8195786024293202,-0.9254178177383005,1,-1.4945989044723147,0.8967197948673039,0.8911592311553086,0.8942678071642559,-2,-2,1,6,-3,0,2,-1,-1,-3,-4,-1,-3,-3,-1,0,-1,-4,-3,-3,1,-1,1,0,-1,0,0,0,-1,-2,-2,0,-1,-2,-1,4,1,-3,-2,-2,-1,-2,-3,-4,-1,-2,-3,-4,-3,2,4,-2,2,0,-3,-2,-1,-2,-1,1,4.3,8.31,58.3,63.8,174.6,115.7,7,21,0.9643790961491182,8,20,7,17,0.9293417068530838,13,11,17,21,0.94214839707572,23,15,0.38650306748466257,72.2760736196319,1.0,0.0,0.0,0.0,0.0,0.0,0.0,0.0,-2.7,-2.1,-0.2,-0.2,-61.1,-44.5,0.19230769230769232,27.5,1.0,0.0,0.0,0.0,0.0,0.0,0.0,0.0,-1.9,-2.0,-0.2,-0.2,-64.5,-42.0,0.0,0.0,1.0,0.0,0.0,0.0,0.0,0.0,0.0,0.0,-1.8,-2.7,-0.2,-0.2,-64.2,-44.4,-0.002864499259056844,-0.007057266199917004,-0.007683871702368322,-0.0031039554210675825,-0.04829859673840024,-0.028654219626323092,,,22.375833333333333,15.146363636363635,16.593684210526316,NONE,NONE,NONE,NONE,NONE,LEU,ASP,GLU,THR,THR,TYR,GLU,ARG,LEU,ALA,GLU,GLU,THR,LEU,ASP,LEU,ALA,GLU,PHE,PHE,GLU,ASP,LEU,ALA,ASP,LYS,PRO,TYR,THR,PHE,GLU,ASP,TYR,ASP,VAL,4.33,7.27,61.2,63.8,178.3,112.53,1,17.0,0.894631016292,5.0
16,1ekg,1ekg_A.pdb,LEU,106,A,SER,ALA,0.43113754173004337,-0.9022862185088361,0.7433315677723403,-0.6689231498110337,0.43478636905558127,-0.9005336269587404,0.7148350922074005,-0.6992930651370978,0.5203928755002362,-0.8539269612376669,0.7309805217336895,-0.6823983271125033,-0.991993828242157,-0.1262863600293791,1,0.0,0.0,0,0.13986606177944821,-0.9901704321793837,1,-0.9773021416212063,0.2118502395150959,1,0.0,0.0,0,0.0,0.0,0,2.258014440536499,-0.9421439234917631,-0.8276054812540393,1,-1.6217656373757565,0.0,0.0,0.0,0,0.0,2.317614793777466,-0.8195786024293202,-0.9254178177383005,1,-1.4945989044723147,2.0877673625946045,-0.9730569448763863,-0.9445525317002496,1,-2.0953730925585003,1.9828150272369385,-0.8820762632167569,-0.953078576703079,1,-2.2529743608498047,0.8911592311553086,0.8942678071642559,0.8981744093392454,1,-1,1,0,-1,0,0,0,-1,-2,-2,0,-1,-2,-1,4,1,-3,-2,-2,-1,-2,-3,-4,-1,-2,-3,-4,-3,2,4,-2,2,0,-3,-2,-1,-2,-1,1,4,-1,-2,-2,0,-1,-1,0,-2,-1,-1,-1,-1,-2,-1,1,0,-3,-2,0,4.32,8.16,55.1,42.4,177.6,121.8,7,17,0.9293417068530838,13,11,17,21,0.94214839707572,23,15,15,16,0.9251901900511541,14,17,0.19230769230769232,27.5,1.0,0.0,0.0,0.0,0.0,0.0,0.0,0.0,-1.9,-2.0,-0.2,-0.2,-64.5,-42.0,0.0,0.0,1.0,0.0,0.0,0.0,0.0,0.0,0.0,0.0,-1.8,-2.7,-0.2,-0.2,-64.2,-44.4,0.018867924528301886,2.283018867924528,1.0,0.0,0.0,0.0,0.0,0.0,0.0,0.0,-2.9,-2.3,-0.2,-0.2,-58.6,-43.0,-0.016457290693382646,-0.0040016964397861544,-0.0027962729265733005,0.0017408075892886296,0.026751989242739842,0.011211469009538514,,,15.146363636363635,16.593684210526316,16.862000000000002,NONE,NONE,NONE,NONE,LEU,ASP,GLU,THR,THR,TYR,GLU,ARG,LEU,ALA,GLU,GLU,THR,LEU,ASP,SER,ALA,GLU,PHE,PHE,GLU,ASP,LEU,ALA,ASP,LYS,PRO,TYR,THR,PHE,GLU,ASP,TYR,ASP,VAL,SER,4.0,7.52,58.2,42.8,178.2,119.23,1,18.0,0.89442997515,5.0
17,1ekg,1ekg_A.pdb,ALA,107,A,LEU,GLU,0.43478636905558127,-0.9005336269587404,0.7148350922074005,-0.6992930651370978,0.5203928755002362,-0.8539269612376669,0.7309805217336895,-0.6823983271125033,0.44784195789791725,-0.894112733801594,0.7238068790119122,-0.6900026100639295,0.13986606177944821,-0.9901704321793837,1,-0.9773021416212063,0.2118502395150959,1,0.0,0.0,0,0.0,0.0,0,-0.999741952710267,-0.02271624949374936,1,-0.9997676984811643,0.021553400513044888,1,2.0877673625946045,-0.9730569448763863,-0.9445525317002496,1,-2.0953730925585003,0.0,0.0,0.0,0,0.0,1.9828150272369385,-0.8820762632167569,-0.953078576703079,1,-2.2529743608498047,2.104804277420044,-0.9003033759059142,-0.8511736946606262,1,-1.8642830663929986,2.2431390285491943,-0.8494074441634062,-0.9308947842187543,1,-1.6603344575915162,0.8942678071642559,0.8981744093392454,0.8962070167847881,-1,-2,-3,-4,-1,-2,-3,-4,-3,2,4,-2,2,0,-3,-2,-1,-2,-1,1,4,-1,-2,-2,0,-1,-1,0,-2,-1,-1,-1,-1,-2,-1,1,0,-3,-2,0,-1,0,0,2,-4,2,5,-2,0,-3,-3,1,-2,-3,-1,0,-1,-3,-2,-2,4.32,8.24,52.5,19.1,177.8,123.8,17,21,0.94214839707572,23,15,15,16,0.9251901900511541,14,17,0,22,0.9544735261468763,9,13,0.0,0.0,1.0,0.0,0.0,0.0,0.0,0.0,0.0,0.0,-1.8,-2.7,-0.2,-0.2,-64.2,-44.4,0.018867924528301886,2.283018867924528,1.0,0.0,0.0,0.0,0.0,0.0,0.0,0.0,-2.9,-2.3,-0.2,-0.2,-58.6,-43.0,0.6443298969072165,137.88659793814435,1.0,0.0,0.0,0.0,0.0,0.0,0.0,0.0,-2.1,-2.1,-0.2,-0.2,-63.4,-43.6,-0.005849608912043057,0.03074465900035772,0.09358493534144904,0.014588915902917953,0.26100024710792535,0.018404422993368676,,,16.593684210526316,16.862000000000002,24.482666666666663,NONE,NONE,NONE,LEU,ASP,GLU,THR,THR,TYR,GLU,ARG,LEU,ALA,GLU,GLU,THR,LEU,ASP,SER,LEU,GLU,PHE,PHE,GLU,ASP,LEU,ALA,ASP,LYS,PRO,TYR,THR,PHE,GLU,ASP,TYR,ASP,VAL,SER,PHE,3.76,8.9,56.5,17.6,,122.63,1,19.0,0.897406067422,5.0
18,1ekg,1ekg_A.pdb,GLU,108,A,ALA,PHE,0.5203928755002362,-0.8539269612376669,0.7309805217336895,-0.6823983271125033,0.44784195789791725,-0.894112733801594,0.7238068790119122,-0.6900026100639295,0.5234716846625562,-0.8520430713036432,0.6323842268208572,-0.7746548842343839,0.0,0.0,0,0.0,0.0,0,-0.999741952710267,-0.02271624949374936,1,-0.9997676984811643,0.021553400513044888,1,-0.9854645934834286,0.16988094357679065,1,0.17706370767769608,0.9841993921068166,1,2.104804277420044,-0.9003033759059142,-0.8511736946606262,1,-1.8642830663929986,0.0,0.0,0.0,0,0.0,2.2431390285491943,-0.8494074441634062,-0.9308947842187543,1,-1.6603344575915162,2.247051477432251,-0.9306345319933098,-0.8803668797458934,1,-1.6794303049003227,2.258014440536499,-0.8276054812540393,-0.9421439234917631,1,-1.6217656373757565,0.8981744093392454,0.8962070167847881,0.8945611114739591,4,-1,-2,-2,0,-1,-1,0,-2,-1,-1,-1,-1,-2,-1,1,0,-3,-2,0,-1,0,0,2,-4,2,5,-2,0,-3,-3,1,-2,-3,-1,0,-1,-3,-2,-2,-2,-3,-3,-3,-2,-3,-3,-3,-1,0,0,-3,0,6,-4,-2,-2,1,3,-1,4.64,8.42,56.6,29.9,176.6,120.2,15,16,0.9251901900511541,14,17,0,22,0.9544735261468763,9,13,11,17,0.9753310034908089,17,11,0.018867924528301886,2.283018867924528,1.0,0.0,0.0,0.0,0.0,0.0,0.0,0.0,-2.9,-2.3,-0.2,-0.2,-58.6,-43.0,0.6443298969072165,137.88659793814435,1.0,0.0,0.0,0.0,0.0,0.0,0.0,0.0,-2.1,-2.1,-0.2,-0.2,-63.4,-43.6,0.17258883248730963,39.3502538071066,1.0,0.0,0.0,0.0,0.0,0.0,0.0,0.0,-2.0,-0.8,-0.2,-0.2,-58.4,-50.8,-0.009059654155344155,-0.012379569296929517,-0.007786003420257376,-0.0046309055499830195,-0.003398402016782466,-0.040560766674923025,,,16.862000000000002,24.482666666666663,21.0925,NONE,NONE,LEU,ASP,GLU,THR,THR,TYR,GLU,ARG,LEU,ALA,GLU,GLU,THR,LEU,ASP,SER,LEU,ALA,PHE,PHE,GLU,ASP,LEU,ALA,ASP,LYS,PRO,TYR,THR,PHE,GLU,ASP,TYR,ASP,VAL,SER,PHE,GLY,3.99,7.75,59.6,29.7,178.9,117.83,1,20.0,0.902713602234,5.0
19,1ekg,1ekg_A.pdb,PHE,109,A,GLU,PHE,0.44784195789791725,-0.894112733801594,0.7238068790119122,-0.6900026100639295,0.5234716846625562,-0.8520430713036432,0.6323842268208572,-0.7746548842343839,0.4565303283219748,-0.8897078505454641,0.8050351897547583,-0.5932270587696757,-0.999741952710267,-0.02271624949374936,1,-0.9997676984811643,0.021553400513044888,1,-0.9854645934834286,0.16988094357679065,1,0.17706370767769608,0.9841993921068166,1,0.20416480080111238,-0.9789365322194499,1,-0.3834983325942284,0.9235415685812126,1,2.247051477432251,-0.9306345319933098,-0.8803668797458934,1,-1.6794303049003227,0.0,0.0,0.0,0,0.0,2.258014440536499,-0.8276054812540393,-0.9421439234917631,1,-1.6217656373757565,2.7271318435668945,-0.512123548279181,-0.16707344966442964,1,-0.07571590101850614,2.0877673625946045,-0.9445525317002496,-0.9730569448763863,1,-2.0953730925585003,0.8962070167847881,0.8945611114739591,0.892299759356684,-1,0,0,2,-4,2,5,-2,0,-3,-3,1,-2,-3,-1,0,-1,-3,-2,-2,-2,-3,-3,-3,-2,-3,-3,-3,-1,0,0,-3,0,6,-4,-2,-2,1,3,-1,-2,-3,-3,-3,-2,-3,-3,-3,-1,0,0,-3,0,6,-4,-2,-2,1,3,-1,4.35,8.3,57.7,39.6,175.8,120.3,0,22,0.9544735261468763,9,13,11,17,0.9753310034908089,17,11,19,14,0.855334387683962,20,13,0.6443298969072165,137.88659793814435,1.0,0.0,0.0,0.0,0.0,0.0,0.0,0.0,-2.1,-2.1,-0.2,-0.2,-63.4,-43.6,0.17258883248730963,39.3502538071066,1.0,0.0,0.0,0.0,0.0,0.0,0.0,0.0,-2.0,-0.8,-0.2,-0.2,-58.4,-50.8,0.0,0.0,1.0,0.0,0.0,0.0,0.0,0.0,0.0,0.0,-2.7,-0.7,-0.2,-0.5,-62.8,-36.4,0.06215908647452686,-0.05065336689957405,-0.32946230714028685,-0.021971381584389764,-0.18089667410074617,-0.06183847585623526,,,24.482666666666663,21.0925,18.660999999999998,NONE,LEU,ASP,GLU,THR,THR,TYR,GLU,ARG,LEU,ALA,GLU,GLU,THR,LEU,ASP,SER,LEU,ALA,GLU,PHE,GLU,ASP,LEU,ALA,ASP,LYS,PRO,TYR,THR,PHE,GLU,ASP,TYR,ASP,VAL,SER,PHE,GLY,SER,4.17,7.64,61.4,39.4,178.6,121.23,1,21.0,0.907259083196,5.0
20,1ekg,1ekg_A.pdb,PHE,110,A,PHE,GLU,0.5234716846625562,-0.8520430713036432,0.6323842268208572,-0.7746548842343839,0.4565303283219748,-0.8897078505454641,0.8050351897547583,-0.5932270587696757,0.433708709370036,-0.9010531368440918,0.758665370311281,-0.6514805107525833,-0.9854645934834286,0.16988094357679065,1,0.17706370767769608,0.9841993921068166,1,0.20416480080111238,-0.9789365322194499,1,-0.3834983325942284,0.9235415685812126,1,0.2854441706211983,-0.9583953388129433,1,-0.9987466200838685,0.05005186181401105,1,2.7271318435668945,-0.512123548279181,-0.16707344966442964,1,-0.07571590101850614,3.085055112838745,-0.9015306037316926,-0.2947761101876115,1,-1.0383234340425167,2.0877673625946045,-0.9445525317002496,-0.9730569448763863,1,-2.0953730925585003,1.8591865301132202,-0.9951338565113905,-0.456344422514902,1,-2.3337997760445464,2.104804277420044,-0.8511736946606262,-0.9003033759059142,1,-1.8642830663929986,0.8945611114739591,0.892299759356684,0.895519346693056,-2,-3,-3,-3,-2,-3,-3,-3,-1,0,0,-3,0,6,-4,-2,-2,1,3,-1,-2,-3,-3,-3,-2,-3,-3,-3,-1,0,0,-3,0,6,-4,-2,-2,1,3,-1,-1,0,0,2,-4,2,5,-2,0,-3,-3,1,-2,-3,-1,0,-1,-3,-2,-2,4.35,8.3,57.7,39.6,175.8,120.3,11,17,0.9753310034908089,17,11,19,14,0.855334387683962,20,13,10,13,0.907090113560238,8,15,0.17258883248730963,39.3502538071066,1.0,0.0,0.0,0.0,0.0,0.0,0.0,0.0,-2.0,-0.8,-0.2,-0.2,-58.4,-50.8,0.0,0.0,1.0,0.0,0.0,0.0,0.0,0.0,0.0,0.0,-2.7,-0.7,-0.2,-0.5,-62.8,-36.4,0.5618556701030928,120.23711340206185,1.0,0.0,0.0,0.0,0.0,0.0,0.0,0.0,-2.3,-1.0,-0.2,-0.3,-64.3,-40.7,-0.04145825966213264,-0.097739545201349,-0.38147595563820424,0.003156720426904092,-0.1840879146003335,-0.07535309118484602,,,21.0925,18.660999999999998,29.960666666666665,LEU,ASP,GLU,THR,THR,TYR,GLU,ARG,LEU,ALA,GLU,GLU,THR,LEU,ASP,SER,LEU,ALA,GLU,PHE,GLU,ASP,LEU,ALA,ASP,LYS,PRO,TYR,THR,PHE,GLU,ASP,TYR,ASP,VAL,SER,PHE,GLY,SER,GLY,4.13,8.78,63.0,38.1,177.4,117.03,1,22.0,0.910978242187,5.0
21,1ekg,1ekg_A.pdb,GLU,111,A,PHE,ASP,0.4565303283219748,-0.8897078505454641,0.8050351897547583,-0.5932270587696757,0.433708709370036,-0.9010531368440918,0.758665370311281,-0.6514805107525833,0.39487360405925365,-0.9187354552956231,0.9434022739697515,-0.33165064370313213,0.20416480080111238,-0.9789365322194499,1,-0.3834983325942284,0.9235415685812126,1,0.2854441706211983,-0.9583953388129433,1,-0.9987466200838685,0.05005186181401105,1,0.2470615568427238,-0.9689997869609929,1,-0.9970967427924275,0.07614516079654406,1,1.8591865301132202,-0.9951338565113905,-0.456344422514902,1,-2.3337997760445464,0.0,0.0,0.0,0,0.0,2.104804277420044,-0.8511736946606262,-0.9003033759059142,1,-1.8642830663929986,2.4475386142730713,-0.8885071670592142,-0.3541937922828668,1,-0.8707723401843951,2.247051477432251,-0.8803668797458934,-0.9306345319933098,1,-1.6794303049003227,0.892299759356684,0.895519346693056,0.8832550450601504,-2,-3,-3,-3,-2,-3,-3,-3,-1,0,0,-3,0,6,-4,-2,-2,1,3,-1,-1,0,0,2,-4,2,5,-2,0,-3,-3,1,-2,-3,-1,0,-1,-3,-2,-2,-2,-2,1,6,-3,0,2,-1,-1,-3,-4,-1,-3,-3,-1,0,-1,-4,-3,-3,4.64,8.42,56.6,29.9,176.6,120.2,19,14,0.855334387683962,20,13,10,13,0.907090113560238,8,15,0,17,0.8465553040952377,5,12,0.0,0.0,1.0,0.0,0.0,0.0,0.0,0.0,0.0,0.0,-2.7,-0.7,-0.2,-0.5,-62.8,-36.4,0.5618556701030928,120.23711340206185,1.0,0.0,0.0,0.0,0.0,0.0,0.0,0.0,-2.3,-1.0,-0.2,-0.3,-64.3,-40.7,0.6196319018404908,115.87116564417177,1.0,0.0,0.0,0.0,0.0,0.0,0.0,0.0,-2.1,-0.6,-0.2,-0.2,-66.7,-19.4,-0.005530497403037548,-0.026384104437025147,-0.011940439903750865,-0.023958362898339594,-0.15082716289323514,-0.1311323824165962,,,18.660999999999998,29.960666666666665,29.299166666666665,ASP,GLU,THR,THR,TYR,GLU,ARG,LEU,ALA,GLU,GLU,THR,LEU,ASP,SER,LEU,ALA,GLU,PHE,PHE,ASP,LEU,ALA,ASP,LYS,PRO,TYR,THR,PHE,GLU,ASP,TYR,ASP,VAL,SER,PHE,GLY,SER,GLY,VAL,4.22,9.23,60.2,29.2,,124.83,1,23.0,0.905016174171,5.0
22,1ekg,1ekg_A.pdb,ASP,112,A,GLU,LEU,0.433708709370036,-0.9010531368440918,0.758665370311281,-0.6514805107525833,0.39487360405925365,-0.9187354552956231,0.9434022739697515,-0.33165064370313213,0.2556516590632043,-0.9667689637230972,0.9013553596132278,-0.43308026472757777,0.2854441706211983,-0.9583953388129433,1,-0.9987466200838685,0.05005186181401105,1,0.2470615568427238,-0.9689997869609929,1,-0.9970967427924275,0.07614516079654406,1,-0.47308777055367907,-0.8810153014292939,1,0.5827844619150335,0.8126267722333573,1,2.4475386142730713,-0.8885071670592142,-0.3541937922828668,1,-0.8707723401843951,0.0,0.0,0.0,0,0.0,2.247051477432251,-0.8803668797458934,-0.9306345319933098,1,-1.6794303049003227,2.772399425506592,-0.9162079423343116,-0.7052776333491941,1,-1.072630051858636,2.449023962020874,-0.1310746392825918,-0.82113154521524,1,-0.4562603415090951,0.895519346693056,0.8832550450601504,0.8868369546363627,-1,0,0,2,-4,2,5,-2,0,-3,-3,1,-2,-3,-1,0,-1,-3,-2,-2,-2,-2,1,6,-3,0,2,-1,-1,-3,-4,-1,-3,-3,-1,0,-1,-4,-3,-3,-1,-2,-3,-4,-1,-2,-3,-4,-3,2,4,-2,2,0,-3,-2,-1,-2,-1,1,4.71,8.34,54.2,41.1,176.3,120.4,10,13,0.907090113560238,8,15,0,17,0.8465553040952377,5,12,15,11,0.8630041923965317,19,7,0.5618556701030928,120.23711340206185,1.0,0.0,0.0,0.0,0.0,0.0,0.0,0.0,-2.3,-1.0,-0.2,-0.3,-64.3,-40.7,0.6196319018404908,115.87116564417177,1.0,0.0,0.0,0.0,0.0,0.0,0.0,0.0,-2.1,-0.6,-0.2,-0.2,-66.7,-19.4,0.036585365853658534,6.98780487804878,1.0,0.0,0.0,0.0,0.0,0.0,0.0,0.0,-0.8,-1.9,-0.5,-0.2,-75.2,-25.7,0.02842893066765402,0.026448946720783302,0.02115854496517443,0.008933608330037793,0.08102125767790777,0.05711112654761394,,,29.960666666666665,29.299166666666665,26.818421052631574,GLU,THR,THR,TYR,GLU,ARG,LEU,ALA,GLU,GLU,THR,LEU,ASP,SER,LEU,ALA,GLU,PHE,PHE,GLU,LEU,ALA,ASP,LYS,PRO,TYR,THR,PHE,GLU,ASP,TYR,ASP,VAL,SER,PHE,GLY,SER,GLY,VAL,LEU,4.42,7.74,56.5,41.4,179.4,120.33,1,24.0,0.897959169058,5.0
23,1ekg,1ekg_A.pdb,LEU,113,A,ASP,ALA,0.39487360405925365,-0.9187354552956231,0.9434022739697515,-0.33165064370313213,0.2556516590632043,-0.9667689637230972,0.9013553596132278,-0.43308026472757777,0.608134303559355,-0.7938341570091187,0.8459432688509856,-0.5332729000105941,0.2470615568427238,-0.9689997869609929,1,-0.9970967427924275,0.07614516079654406,1,-0.47308777055367907,-0.8810153014292939,1,0.5827844619150335,0.8126267722333573,1,0.0,0.0,0,0.0,0.0,0,2.772399425506592,-0.9162079423343116,-0.7052776333491941,1,-1.072630051858636,0.0,0.0,0.0,0,0.0,2.449023962020874,-0.1310746392825918,-0.82113154521524,1,-0.4562603415090951,2.099982738494873,-0.9438040496558204,-0.4718068172071088,1,-1.5395798161749816,2.4475386142730713,-0.3541937922828668,-0.8885071670592142,1,-0.8707723401843951,0.8832550450601504,0.8868369546363627,0.8951318591005784,-2,-2,1,6,-3,0,2,-1,-1,-3,-4,-1,-3,-3,-1,0,-1,-4,-3,-3,-1,-2,-3,-4,-1,-2,-3,-4,-3,2,4,-2,2,0,-3,-2,-1,-2,-1,1,4,-1,-2,-2,0,-1,-1,0,-2,-1,-1,-1,-1,-2,-1,1,0,-3,-2,0,4.32,8.16,55.1,42.4,177.6,121.8,0,17,0.8465553040952377,5,12,15,11,0.8630041923965317,19,7,13,11,0.8767605371955309,12,12,0.6196319018404908,115.87116564417177,1.0,0.0,0.0,0.0,0.0,0.0,0.0,0.0,-2.1,-0.6,-0.2,-0.2,-66.7,-19.4,0.036585365853658534,6.98780487804878,1.0,0.0,0.0,0.0,0.0,0.0,0.0,0.0,-0.8,-1.9,-0.5,-0.2,-75.2,-25.7,0.44339622641509435,53.65094339622642,0.0,0.0,0.0,0.0,0.0,1.0,0.0,0.0,-1.0,-0.2,-0.7,-0.2,-52.5,-32.2,0.05695705704228279,0.07537933793724895,0.05143143549613419,0.036450211841030755,0.22047720758095002,0.26956716114011886,,,29.299166666666665,26.818421052631574,25.15,THR,THR,TYR,GLU,ARG,LEU,ALA,GLU,GLU,THR,LEU,ASP,SER,LEU,ALA,GLU,PHE,PHE,GLU,ASP,ALA,ASP,LYS,PRO,TYR,THR,PHE,GLU,ASP,TYR,ASP,VAL,SER,PHE,GLY,SER,GLY,VAL,LEU,THR,3.81,7.23,55.8,41.3,177.0,115.93,1,25.0,0.878425262128,5.0
24,1ekg,1ekg_A.pdb,ALA,114,A,LEU,ASP,0.2556516590632043,-0.9667689637230972,0.9013553596132278,-0.43308026472757777,0.608134303559355,-0.7938341570091187,0.8459432688509856,-0.5332729000105941,-0.026409388394406118,-0.9996512112755296,0.9972479773643065,-0.07413819287519537,-0.47308777055367907,-0.8810153014292939,1,0.5827844619150335,0.8126267722333573,1,0.0,0.0,0,0.0,0.0,0,0.36390362112594865,-0.9314366078974038,1,-0.9935108839913955,0.11373708010422902,1,2.099982738494873,-0.9438040496558204,-0.4718068172071088,1,-1.5395798161749816,3.309418201446533,-0.7983869484393664,-0.6351277943455449,1,-0.876431993299041,2.4475386142730713,-0.3541937922828668,-0.8885071670592142,1,-0.8707723401843951,4.942845821380615,-0.7860198890575545,-0.26430390794779923,1,-0.1868999867902504,3.03072452545166,-0.3045560282188672,-0.9304562531259704,1,-0.5231130147209019,0.8868369546363627,0.8951318591005784,0.8394146988713407,-1,-2,-3,-4,-1,-2,-3,-4,-3,2,4,-2,2,0,-3,-2,-1,-2,-1,1,4,-1,-2,-2,0,-1,-1,0,-2,-1,-1,-1,-1,-2,-1,1,0,-3,-2,0,-2,-2,1,6,-3,0,2,-1,-1,-3,-4,-1,-3,-3,-1,0,-1,-4,-3,-3,4.32,8.24,52.5,19.1,177.8,123.8,15,11,0.8630041923965317,19,7,13,11,0.8767605371955309,12,12,0,15,0.7257846184437055,3,12,0.036585365853658534,6.98780487804878,1.0,0.0,0.0,0.0,0.0,0.0,0.0,0.0,-0.8,-1.9,-0.5,-0.2,-75.2,-25.7,0.44339622641509435,53.65094339622642,0.0,0.0,0.0,0.0,0.0,1.0,0.0,0.0,-1.0,-0.2,-0.7,-0.2,-52.5,-32.2,0.9386503067484663,175.5276073619632,0.0,0.0,0.0,0.0,0.0,1.0,0.0,0.0,-0.6,-0.3,-0.3,-0.1,-91.5,-4.3,0.02238285397065122,0.022681310140598803,-0.022472978883943236,0.02735814224183197,0.029442385992444,0.1891294862213033,,,26.818421052631574,25.15,33.83583333333333,THR,TYR,GLU,ARG,LEU,ALA,GLU,GLU,THR,LEU,ASP,SER,LEU,ALA,GLU,PHE,PHE,GLU,ASP,LEU,ASP,LYS,PRO,TYR,THR,PHE,GLU,ASP,TYR,ASP,VAL,SER,PHE,GLY,SER,GLY,VAL,LEU,THR,VAL,3.63,7.23,55.4,18.7,178.3,120.33,1,26.0,0.87347913166,5.0
25,1ekg,1ekg_A.pdb,ASP,115,A,ALA,LYS,0.608134303559355,-0.7938341570091187,0.8459432688509856,-0.5332729000105941,-0.026409388394406118,-0.9996512112755296,0.9972479773643065,-0.07413819287519537,0.27720676057548627,-0.9608102892305249,-0.8180967269264973,0.5750806425121195,0.0,0.0,0,0.0,0.0,0,0.36390362112594865,-0.9314366078974038,1,-0.9935108839913955,0.11373708010422902,1,0.5633083789460837,-0.8262467368825945,1,0.4982714142323714,-0.8670211057170826,1,4.942845821380615,-0.7860198890575545,-0.26430390794779923,1,-0.1868999867902504,0.0,0.0,0.0,0,0.0,3.03072452545166,-0.3045560282188672,-0.9304562531259704,1,-0.5231130147209019,3.622375965118408,-0.3653008387542547,-0.48766345313887,1,-0.5170277565004507,2.099982738494873,-0.4718068172071088,-0.9438040496558204,1,-1.5395798161749816,0.8951318591005784,0.8394146988713407,0.8373154369665634,4,-1,-2,-2,0,-1,-1,0,-2,-1,-1,-1,-1,-2,-1,1,0,-3,-2,0,-2,-2,1,6,-3,0,2,-1,-1,-3,-4,-1,-3,-3,-1,0,-1,-4,-3,-3,-1,2,0,-1,-3,1,1,-2,-1,-3,-2,5,-1,-3,-1,0,-1,-3,-2,-2,4.71,8.34,54.2,41.1,176.3,120.4,13,11,0.8767605371955309,12,12,0,15,0.7257846184437055,3,12,8,8,0.5171031175436345,12,4,0.44339622641509435,53.65094339622642,0.0,0.0,0.0,0.0,0.0,1.0,0.0,0.0,-1.0,-0.2,-0.7,-0.2,-52.5,-32.2,0.9386503067484663,175.5276073619632,0.0,0.0,0.0,0.0,0.0,1.0,0.0,0.0,-0.6,-0.3,-0.3,-0.1,-91.5,-4.3,0.4682926829268293,107.70731707317074,0.0,0.0,0.0,0.0,0.0,0.0,1.0,0.0,-1.9,-1.5,-0.2,-0.0,-73.9,144.9,0.03488742322000121,0.034299243665503985,0.015582287530591685,0.024079479278736958,0.16492254278619833,0.09523433702148165,,,25.15,33.83583333333333,32.45909090909091,TYR,GLU,ARG,LEU,ALA,GLU,GLU,THR,LEU,ASP,SER,LEU,ALA,GLU,PHE,PHE,GLU,ASP,LEU,ALA,LYS,PRO,TYR,THR,PHE,GLU,ASP,TYR,ASP,VAL,SER,PHE,GLY,SER,GLY,VAL,LEU,THR,VAL,LYS,4.58,7.49,53.4,40.7,177.4,113.43,1,27.0,0.862295003364,5.0
26,1ekg,1ekg_A.pdb,LYS,116,A,ASP,PRO,-0.026409388394406118,-0.9996512112755296,0.9972479773643065,-0.07413819287519537,0.27720676057548627,-0.9608102892305249,-0.8180967269264973,0.5750806425121195,0.41912622808691596,-0.9079279734261052,0.9610037485696793,-0.2765353417468093,0.36390362112594865,-0.9314366078974038,1,-0.9935108839913955,0.11373708010422902,1,0.5633083789460837,-0.8262467368825945,1,0.4982714142323714,-0.8670211057170826,1,0.8668188083361684,0.49862325809639574,1,0.733101580583299,-0.6801191605492884,1,3.622375965118408,-0.3653008387542547,-0.48766345313887,1,-0.5170277565004507,0.0,0.0,0.0,0,0.0,2.099982738494873,-0.4718068172071088,-0.9438040496558204,1,-1.5395798161749816,2.233081579208374,-0.9250927736201868,-0.7876410129177309,1,-1.5810389962442752,0.0,0.0,0.0,0,0.0,0.8394146988713407,0.8373154369665634,0.7141599831503341,-2,-2,1,6,-3,0,2,-1,-1,-3,-4,-1,-3,-3,-1,0,-1,-4,-3,-3,-1,2,0,-1,-3,1,1,-2,-1,-3,-2,5,-1,-3,-1,0,-1,-3,-2,-2,-1,-2,-2,-1,-3,-1,-1,-2,-2,-3,-3,-1,-2,-4,7,-1,-1,-4,-3,-2,4.6,8.18,54.2,32.6,174.8,121.6,0,15,0.7257846184437055,3,12,8,8,0.5171031175436345,12,4,0,13,0.8705647317139761,1,12,0.9386503067484663,175.5276073619632,0.0,0.0,0.0,0.0,0.0,1.0,0.0,0.0,-0.6,-0.3,-0.3,-0.1,-91.5,-4.3,0.4682926829268293,107.70731707317074,0.0,0.0,0.0,0.0,0.0,0.0,1.0,0.0,-1.9,-1.5,-0.2,-0.0,-73.9,144.9,0.9558823529411765,147.2058823529412,0.0,0.0,0.0,0.0,0.0,1.0,0.0,0.0,0.0,-0.1,0.0,-0.0,-65.2,-16.1,0.08225570550618683,0.12967660576673876,0.16413368029524708,0.056454571358744356,0.4255131426101996,0.3315237059179545,,,33.83583333333333,32.45909090909091,26.181428571428572,GLU,ARG,LEU,ALA,GLU,GLU,THR,LEU,ASP,SER,LEU,ALA,GLU,PHE,PHE,GLU,ASP,LEU,ALA,ASP,PRO,TYR,THR,PHE,GLU,ASP,TYR,ASP,VAL,SER,PHE,GLY,SER,GLY,VAL,LEU,THR,VAL,LYS,LEU,4.25,7.01,52.3,30.9,176.5,119.23,1,28.0,0.868044886394,5.0
27,1ekg,1ekg_A.pdb,PRO,117,A,LYS,TYR,0.27720676057548627,-0.9608102892305249,-0.8180967269264973,0.5750806425121195,0.41912622808691596,-0.9079279734261052,0.9610037485696793,-0.2765353417468093,-0.020168595871182683,-0.9997965931831259,0.998485675094566,0.055012331626180105,0.5633083789460837,-0.8262467368825945,1,0.4982714142323714,-0.8670211057170826,1,0.8668188083361684,0.49862325809639574,1,0.733101580583299,-0.6801191605492884,1,0.6788654375084623,0.7342627035036194,1,0.20427085000020423,0.9789144088428743,1,2.233081579208374,-0.9250927736201868,-0.7876410129177309,1,-1.5810389962442752,4.530735969543457,-0.24591387074192905,-0.08774555680733732,1,-0.07422615952904987,0.0,0.0,0.0,0,0.0,0.0,0.0,0.0,0,0.0,0.0,0.0,0.0,0,0.0,0.8373154369665634,0.7141599831503341,0.7289015620191394,-1,2,0,-1,-3,1,1,-2,-1,-3,-2,5,-1,-3,-1,0,-1,-3,-2,-2,-1,-2,-2,-1,-3,-1,-1,-2,-2,-3,-3,-1,-2,-4,7,-1,-1,-4,-3,-2,-2,-2,-2,-3,-2,-1,-2,-3,2,-1,-1,-2,-1,3,-3,-2,-2,2,7,-1,4.74,0,63.3,32.1,177.3,0,8,8,0.5171031175436345,12,4,0,13,0.8705647317139761,1,12,9,14,0.6199941731423642,10,13,0.4682926829268293,107.70731707317074,0.0,0.0,0.0,0.0,0.0,0.0,1.0,0.0,-1.9,-1.5,-0.2,-0.0,-73.9,144.9,0.9558823529411765,147.2058823529412,0.0,0.0,0.0,0.0,0.0,1.0,0.0,0.0,0.0,-0.1,0.0,-0.0,-65.2,-16.1,0.30180180180180183,76.95945945945947,0.0,0.0,0.0,0.0,0.0,1.0,0.0,0.0,-0.1,-0.3,-0.1,-0.1,-91.2,3.2,0.031312969140568546,0.054429935163126004,0.01833821237178598,0.0623001501219886,,0.16059888195086133,,,32.45909090909091,26.181428571428572,24.833333333333332,ARG,LEU,ALA,GLU,GLU,THR,LEU,ASP,SER,LEU,ALA,GLU,PHE,PHE,GLU,ASP,LEU,ALA,ASP,LYS,TYR,THR,PHE,GLU,ASP,TYR,ASP,VAL,SER,PHE,GLY,SER,GLY,VAL,LEU,THR,VAL,LYS,LEU,GLY,4.37,,64.4,31.6,,,1,29.0,0.862909387569,5.0
28,1ekg,1ekg_A.pdb,TYR,118,A,PRO,THR,0.41912622808691596,-0.9079279734261052,0.9610037485696793,-0.2765353417468093,-0.020168595871182683,-0.9997965931831259,0.998485675094566,0.055012331626180105,-0.13558897432611755,-0.9907651740151101,-0.8821951482257725,0.47088397769185913,0.8668188083361684,0.49862325809639574,1,0.733101580583299,-0.6801191605492884,1,0.6788654375084623,0.7342627035036194,1,0.20427085000020423,0.9789144088428743,1,0.551242317060269,0.8343451970749431,1,0.0,0.0,0,0.0,0.0,0.0,0,0.0,0.0,0.0,0.0,0,0.0,0.0,0.0,0.0,0,0.0,2.838670015335083,-0.9285884267261727,-0.6855138297528767,1,-0.9139268046247921,2.4928667545318604,-0.5361534220977708,-0.9960612445422359,1,-1.2027479353363006,0.7141599831503341,0.7289015620191394,0.8254139426054802,-1,-2,-2,-1,-3,-1,-1,-2,-2,-3,-3,-1,-2,-4,7,-1,-1,-4,-3,-2,-2,-2,-2,-3,-2,-1,-2,-3,2,-1,-1,-2,-1,3,-3,-2,-2,2,7,-1,0,-1,0,-1,-1,-1,-1,-2,-2,-1,-1,-1,-1,-2,-1,1,5,-2,-2,0,4.66,8.12,57.9,38.8,175.9,120.3,0,13,0.8705647317139761,1,12,9,14,0.6199941731423642,10,13,16,12,0.4605705571267721,15,13,0.9558823529411765,147.2058823529412,0.0,0.0,0.0,0.0,0.0,1.0,0.0,0.0,0.0,-0.1,0.0,-0.0,-65.2,-16.1,0.30180180180180183,76.95945945945947,0.0,0.0,0.0,0.0,0.0,1.0,0.0,0.0,-0.1,-0.3,-0.1,-0.1,-91.2,3.2,0.14084507042253522,22.95774647887324,0.0,0.0,0.0,0.0,0.0,0.0,1.0,0.0,-1.5,-0.1,-0.2,-0.1,-97.8,151.9,-0.010655434071323225,-0.05469191136009274,-0.3082234293120013,0.04588925811705701,0.9188048301873389,-0.08564636672729671,,,26.181428571428572,24.833333333333332,21.702857142857145,LEU,ALA,GLU,GLU,THR,LEU,ASP,SER,LEU,ALA,GLU,PHE,PHE,GLU,ASP,LEU,ALA,ASP,LYS,PRO,THR,PHE,GLU,ASP,TYR,ASP,VAL,SER,PHE,GLY,SER,GLY,VAL,LEU,THR,VAL,LYS,LEU,GLY,GLY,4.57,5.88,54.8,37.3,176.0,109.83,1,30.0,0.859175387558,5.0
29,1ekg,1ekg_A.pdb,THR,119,A,TYR,PHE,-0.020168595871182683,-0.9997965931831259,0.998485675094566,0.055012331626180105,-0.13558897432611755,-0.9907651740151101,-0.8821951482257725,0.47088397769185913,0.288599059487107,-0.9574500419672858,-0.916786178462371,0.3993783957356253,0.6788654375084623,0.7342627035036194,1,0.20427085000020423,0.9789144088428743,1,0.551242317060269,0.8343451970749431,1,0.0,0.0,0,0.11508907206312304,-0.9933551759021791,1,0.23877985835884188,0.9710737249262444,1,2.838670015335083,-0.9285884267261727,-0.6855138297528767,1,-0.9139268046247921,0.0,0.0,0.0,0,0.0,2.4928667545318604,-0.5361534220977708,-0.9960612445422359,1,-1.2027479353363006,4.6076531410217285,-0.19971988126140888,-0.30303179185131657,1,-0.1853439616022722,3.388972759246826,-0.9970647583605448,-0.8493274347923165,1,-0.6501874220898292,0.7289015620191394,0.8254139426054802,0.7466303557938464,-2,-2,-2,-3,-2,-1,-2,-3,2,-1,-1,-2,-1,3,-3,-2,-2,2,7,-1,0,-1,0,-1,-1,-1,-1,-2,-2,-1,-1,-1,-1,-2,-1,1,5,-2,-2,0,-2,-3,-3,-3,-2,-3,-3,-3,-1,0,0,-3,0,6,-4,-2,-2,1,3,-1,4.47,8.15,61.8,69.8,174.7,113.6,9,14,0.6199941731423642,10,13,16,12,0.4605705571267721,15,13,10,12,0.5088090960816911,13,9,0.30180180180180183,76.95945945945947,0.0,0.0,0.0,0.0,0.0,1.0,0.0,0.0,-0.1,-0.3,-0.1,-0.1,-91.2,3.2,0.14084507042253522,22.95774647887324,0.0,0.0,0.0,0.0,0.0,0.0,1.0,0.0,-1.5,-0.1,-0.2,-0.1,-97.8,151.9,0.47715736040609136,108.79187817258882,0.0,0.0,0.0,0.0,0.0,0.0,0.0,1.0,-0.8,-1.9,-0.3,-0.1,-73.2,156.5,0.007391853129907805,0.027968448046236126,0.06879489685083268,0.029271313984380046,0.3724370156422627,-0.02106433414614014,,,24.833333333333332,21.702857142857145,26.892000000000003,ALA,GLU,GLU,THR,LEU,ASP,SER,LEU,ALA,GLU,PHE,PHE,GLU,ASP,LEU,ALA,ASP,LYS,PRO,TYR,PHE,GLU,ASP,TYR,ASP,VAL,SER,PHE,GLY,SER,GLY,VAL,LEU,THR,VAL,LYS,LEU,GLY,GLY,ASP,4.46,6.89,59.6,70.7,175.3,111.93,1,31.0,0.836140536487,5.0
30,1ekg,1ekg_A.pdb,PHE,120,A,THR,GLU,-0.13558897432611755,-0.9907651740151101,-0.8821951482257725,0.47088397769185913,0.288599059487107,-0.9574500419672858,-0.916786178462371,0.3993783957356253,0.5426321759042821,-0.8399704290469898,0.8330418782246166,-0.5532099322354969,0.551242317060269,0.8343451970749431,1,0.0,0.0,0,0.11508907206312304,-0.9933551759021791,1,0.23877985835884188,0.9710737249262444,1,-0.998614468571603,0.05262264873089324,1,-0.9985578120686837,0.05368701851102803,1,4.6076531410217285,-0.19971988126140888,-0.30303179185131657,1,-0.1853439616022722,0.0,0.0,0.0,0,0.0,3.388972759246826,-0.9970647583605448,-0.8493274347923165,1,-0.6501874220898292,2.2038843631744385,-0.952731730990712,-0.4601478552681727,1,-1.533314458550072,0.0,0.0,0.0,0,0.0,0.8254139426054802,0.7466303557938464,0.8094107000431406,0,-1,0,-1,-1,-1,-1,-2,-2,-1,-1,-1,-1,-2,-1,1,5,-2,-2,0,-2,-3,-3,-3,-2,-3,-3,-3,-1,0,0,-3,0,6,-4,-2,-2,1,3,-1,-1,0,0,2,-4,2,5,-2,0,-3,-3,1,-2,-3,-1,0,-1,-3,-2,-2,4.35,8.3,57.7,39.6,175.8,120.3,16,12,0.4605705571267721,15,13,10,12,0.5088090960816911,13,9,3,14,0.8988481542065502,0,17,0.14084507042253522,22.95774647887324,0.0,0.0,0.0,0.0,0.0,0.0,1.0,0.0,-1.5,-0.1,-0.2,-0.1,-97.8,151.9,0.47715736040609136,108.79187817258882,0.0,0.0,0.0,0.0,0.0,0.0,0.0,1.0,-0.8,-1.9,-0.3,-0.1,-73.2,156.5,1.0,214.0,0.0,0.0,0.0,0.0,0.0,1.0,0.0,0.0,-0.3,-0.1,-0.0,-0.1,-57.1,-33.6,-0.04132719293510784,-0.10410363117984164,-0.3799211662264416,-0.039974632580424364,-0.5109617140203798,0.0635620504693187,,,21.702857142857145,26.892000000000003,29.851333333333333,GLU,GLU,THR,LEU,ASP,SER,LEU,ALA,GLU,PHE,PHE,GLU,ASP,LEU,ALA,ASP,LYS,PRO,TYR,THR,GLU,ASP,TYR,ASP,VAL,SER,PHE,GLY,SER,GLY,VAL,LEU,THR,VAL,LYS,LEU,GLY,GLY,ASP,LEU,4.78,8.99,56.8,40.6,175.4,123.43,1,32.0,0.806070715476,5.0
31,1ekg,1ekg_A.pdb,GLU,121,A,PHE,ASP,0.288599059487107,-0.9574500419672858,-0.916786178462371,0.3993783957356253,0.5426321759042821,-0.8399704290469898,0.8330418782246166,-0.5532099322354969,-0.1150693692990941,-0.993357458445402,0.9390080864995926,0.3438950617388591,0.11508907206312304,-0.9933551759021791,1,0.23877985835884188,0.9710737249262444,1,-0.998614468571603,0.05262264873089324,1,-0.9985578120686837,0.05368701851102803,1,0.528325245055827,0.8490420692973348,1,0.8549162776138,-0.5187659956772072,1,2.2038843631744385,-0.952731730990712,-0.4601478552681727,1,-1.533314458550072,4.6076531410217285,-0.30303179185131657,-0.19971988126140888,0,-0.1853439616022722,0.0,0.0,0.0,0,0.0,0.0,0.0,0.0,0,0.0,4.900822162628174,-0.6277135555602563,-0.8215234555755437,1,-0.180499818753775,0.7466303557938464,0.8094107000431406,0.7436637277903199,-2,-3,-3,-3,-2,-3,-3,-3,-1,0,0,-3,0,6,-4,-2,-2,1,3,-1,-1,0,0,2,-4,2,5,-2,0,-3,-3,1,-2,-3,-1,0,-1,-3,-2,-2,-2,-2,1,6,-3,0,2,-1,-1,-3,-4,-1,-3,-3,-1,0,-1,-4,-3,-3,4.64,8.42,56.6,29.9,176.6,120.2,10,12,0.5088090960816911,13,9,3,14,0.8988481542065502,0,17,4,14,0.5755396415527316,7,11,0.47715736040609136,108.79187817258882,0.0,0.0,0.0,0.0,0.0,0.0,0.0,1.0,-0.8,-1.9,-0.3,-0.1,-73.2,156.5,1.0,214.0,0.0,0.0,0.0,0.0,0.0,1.0,0.0,0.0,-0.3,-0.1,-0.0,-0.1,-57.1,-33.6,0.4233128834355828,79.15950920245399,0.0,0.0,0.0,0.0,0.0,1.0,0.0,0.0,-0.1,-0.3,-0.1,-0.2,-96.6,20.1,-0.02338202057597666,-0.02868510343261757,-0.013591862774234603,-0.029060054931346224,-0.19186973876431954,-0.06585824272000186,,,26.892000000000003,29.851333333333333,25.482499999999998,GLU,THR,LEU,ASP,SER,LEU,ALA,GLU,PHE,PHE,GLU,ASP,LEU,ALA,ASP,LYS,PRO,TYR,THR,PHE,ASP,TYR,ASP,VAL,SER,PHE,GLY,SER,GLY,VAL,LEU,THR,VAL,LYS,LEU,GLY,GLY,ASP,LEU,GLY,4.22,9.28,59.4,29.7,,120.63,1,33.0,0.778345638326,5.0
32,1ekg,1ekg_A.pdb,ASP,122,A,GLU,TYR,0.5426321759042821,-0.8399704290469898,0.8330418782246166,-0.5532099322354969,-0.1150693692990941,-0.993357458445402,0.9390080864995926,0.3438950617388591,0.4545241469547554,-0.8907344159933711,-0.7548054492515451,0.6559487280117045,-0.998614468571603,0.05262264873089324,1,-0.9985578120686837,0.05368701851102803,1,0.528325245055827,0.8490420692973348,1,0.8549162776138,-0.5187659956772072,1,-0.9954714571665586,0.09506091713574231,1,0.1512411591601781,0.988496895177666,1,0.0,0.0,0.0,0,0.0,0.0,0.0,0.0,0,0.0,4.900822162628174,-0.6277135555602563,-0.8215234555755437,1,-0.180499818753775,3.023765802383423,-0.6539125204950405,-0.9978846262114478,1,-0.8472237452564401,2.2038843631744385,-0.4601478552681727,-0.952731730990712,1,-1.533314458550072,0.8094107000431406,0.7436637277903199,0.8735670614704365,-1,0,0,2,-4,2,5,-2,0,-3,-3,1,-2,-3,-1,0,-1,-3,-2,-2,-2,-2,1,6,-3,0,2,-1,-1,-3,-4,-1,-3,-3,-1,0,-1,-4,-3,-3,-2,-2,-2,-3,-2,-1,-2,-3,2,-1,-1,-2,-1,3,-3,-2,-2,2,7,-1,4.71,8.34,54.2,41.1,176.3,120.4,3,14,0.8988481542065502,0,17,4,14,0.5755396415527316,7,11,21,7,0.6325531867860195,13,15,1.0,214.0,0.0,0.0,0.0,0.0,0.0,1.0,0.0,0.0,-0.3,-0.1,-0.0,-0.1,-57.1,-33.6,0.4233128834355828,79.15950920245399,0.0,0.0,0.0,0.0,0.0,1.0,0.0,0.0,-0.1,-0.3,-0.1,-0.2,-96.6,20.1,0.0990990990990991,25.27027027027027,0.0,0.0,0.0,0.0,0.0,0.0,0.0,1.0,-1.9,-0.3,-0.2,-0.2,-63.0,139.0,-0.023192449934807898,-0.031377130225724345,-0.01374944837739696,-0.029638518327894787,-0.2661124314820039,-0.08557338693229999,,,29.851333333333333,25.482499999999998,18.819523809523805,THR,LEU,ASP,SER,LEU,ALA,GLU,PHE,PHE,GLU,ASP,LEU,ALA,ASP,LYS,PRO,TYR,THR,PHE,GLU,TYR,ASP,VAL,SER,PHE,GLY,SER,GLY,VAL,LEU,THR,VAL,LYS,LEU,GLY,GLY,ASP,LEU,GLY,THR,4.64,9.21,52.7,38.1,176.3,114.23,1,34.0,0.766894920723,5.0
33,1ekg,1ekg_A.pdb,TYR,123,A,ASP,ASP,-0.1150693692990941,-0.993357458445402,0.9390080864995926,0.3438950617388591,0.4545241469547554,-0.8907344159933711,-0.7548054492515451,0.6559487280117045,-0.8650912901098698,-0.5016144533165297,-0.7698217944715344,0.6382588853722497,0.528325245055827,0.8490420692973348,1,0.8549162776138,-0.5187659956772072,1,-0.9954714571665586,0.09506091713574231,1,0.1512411591601781,0.988496895177666,1,-0.9922092909378838,-0.12458219365760868,1,0.5548966329637903,0.8319193030128875,1,3.023765802383423,-0.6539125204950405,-0.9978846262114478,1,-0.8472237452564401,2.5400209426879883,-0.7797674827027011,-0.7694413237744683,1,-1.1070177700990713,2.2038843631744385,-0.4601478552681727,-0.952731730990712,1,-1.533314458550072,3.9838905334472656,-0.10648947948634396,-0.14915596785209734,1,-0.42971123498762615,2.069613456726074,-0.8169560828565402,-0.9355490486632907,1,-1.9803233127123576,0.7436637277903199,0.8735670614704365,0.8510396809880016,-2,-2,1,6,-3,0,2,-1,-1,-3,-4,-1,-3,-3,-1,0,-1,-4,-3,-3,-2,-2,-2,-3,-2,-1,-2,-3,2,-1,-1,-2,-1,3,-3,-2,-2,2,7,-1,-2,-2,1,6,-3,0,2,-1,-1,-3,-4,-1,-3,-3,-1,0,-1,-4,-3,-3,4.66,8.12,57.9,38.8,175.9,120.3,4,14,0.5755396415527316,7,11,21,7,0.6325531867860195,13,15,3,24,0.3950649032255561,8,19,0.4233128834355828,79.15950920245399,0.0,0.0,0.0,0.0,0.0,1.0,0.0,0.0,-0.1,-0.3,-0.1,-0.2,-96.6,20.1,0.0990990990990991,25.27027027027027,0.0,0.0,0.0,0.0,0.0,0.0,0.0,1.0,-1.9,-0.3,-0.2,-0.2,-63.0,139.0,0.5337423312883436,99.80981595092025,0.0,0.0,1.0,0.0,0.0,0.0,0.0,0.0,-2.6,-2.9,-0.1,-0.4,-149.9,140.3,-0.0011330788094970044,-0.1074727715872787,-0.3328426527898207,-0.046109144834209095,-0.3684120717150626,-0.2303698136031197,,,25.482499999999998,18.819523809523805,24.936666666666664,LEU,ASP,SER,LEU,ALA,GLU,PHE,PHE,GLU,ASP,LEU,ALA,ASP,LYS,PRO,TYR,THR,PHE,GLU,ASP,ASP,VAL,SER,PHE,GLY,SER,GLY,VAL,LEU,THR,VAL,LYS,LEU,GLY,GLY,ASP,LEU,GLY,THR,TYR,4.6,7.27,58.6,40.2,174.5,122.63,1,35.0,0.792157497981,5.0
34,1ekg,1ekg_A.pdb,ASP,124,A,TYR,VAL,0.4545241469547554,-0.8907344159933711,-0.7548054492515451,0.6559487280117045,-0.8650912901098698,-0.5016144533165297,-0.7698217944715344,0.6382588853722497,-0.5826120936929658,-0.8127503603706976,-0.6490414356168612,0.7607530577345081,-0.9954714571665586,0.09506091713574231,1,0.1512411591601781,0.988496895177666,1,-0.9922092909378838,-0.12458219365760868,1,0.5548966329637903,0.8319193030128875,1,-0.9995404488921719,-0.030313215409051558,1,0.0,0.0,0,3.9838905334472656,-0.10648947948634396,-0.14915596785209734,1,-0.42971123498762615,0.0,0.0,0.0,0,0.0,2.069613456726074,-0.8169560828565402,-0.9355490486632907,1,-1.9803233127123576,1.993208408355713,-0.9214288169386815,-0.9353461139922108,1,-2.2436079381367184,0.0,0.0,0.0,0,0.0,0.8735670614704365,0.8510396809880016,0.8183478914590296,-2,-2,-2,-3,-2,-1,-2,-3,2,-1,-1,-2,-1,3,-3,-2,-2,2,7,-1,-2,-2,1,6,-3,0,2,-1,-1,-3,-4,-1,-3,-3,-1,0,-1,-4,-3,-3,0,-3,-3,-3,-1,-2,-2,-3,-3,3,1,-2,1,-1,-2,-2,0,-3,-1,4,4.71,8.34,54.2,41.1,176.3,120.4,21,7,0.6325531867860195,13,15,3,24,0.3950649032255561,8,19,18,9,0.3723560912214318,13,14,0.0990990990990991,25.27027027027027,0.0,0.0,0.0,0.0,0.0,0.0,0.0,1.0,-1.9,-0.3,-0.2,-0.2,-63.0,139.0,0.5337423312883436,99.80981595092025,0.0,0.0,1.0,0.0,0.0,0.0,0.0,0.0,-2.6,-2.9,-0.1,-0.4,-149.9,140.3,0.2323943661971831,38.34507042253521,0.0,0.0,1.0,0.0,0.0,0.0,0.0,0.0,-0.3,-0.4,-0.2,-0.2,-125.6,130.5,0.06126202463067307,0.06735444594994269,0.019038979577594047,0.06407054108503288,0.6270492797702931,0.1542658845196014,,,18.819523809523805,24.936666666666664,21.428749999999994,ASP,SER,LEU,ALA,GLU,PHE,PHE,GLU,ASP,LEU,ALA,ASP,LYS,PRO,TYR,THR,PHE,GLU,ASP,TYR,VAL,SER,PHE,GLY,SER,GLY,VAL,LEU,THR,VAL,LYS,LEU,GLY,GLY,ASP,LEU,GLY,THR,TYR,VAL,4.78,8.82,54.6,46.2,176.0,128.93,1,36.0,0.835567517272,5.0
35,1ekg,1ekg_A.pdb,VAL,125,A,ASP,SER,-0.8650912901098698,-0.5016144533165297,-0.7698217944715344,0.6382588853722497,-0.5826120936929658,-0.8127503603706976,-0.6490414356168612,0.7607530577345081,-0.6155468946753196,-0.7881002604082623,-0.6824543288119714,0.7309282379863303,-0.9922092909378838,-0.12458219365760868,1,0.5548966329637903,0.8319193030128875,1,-0.9995404488921719,-0.030313215409051558,1,0.0,0.0,0,0.5179832327068726,-0.8553907707209248,1,0.0,0.0,0,1.993208408355713,-0.9214288169386815,-0.9353461139922108,1,-2.2436079381367184,2.611172676086426,-0.8649907669277885,-0.8217696227828053,1,-1.152428783204333,0.0,0.0,0.0,0,0.0,4.975266456604004,-0.7983035528245744,-0.14385261134212646,1,-0.15514166086321668,2.075809955596924,-0.8945981222365976,-0.9652210278394066,1,-2.050468858797595,0.8510396809880016,0.8183478914590296,0.810675650870793,-2,-2,1,6,-3,0,2,-1,-1,-3,-4,-1,-3,-3,-1,0,-1,-4,-3,-3,0,-3,-3,-3,-1,-2,-2,-3,-3,3,1,-2,1,-1,-2,-2,0,-3,-1,4,1,-1,1,0,-1,0,0,0,-1,-2,-2,0,-1,-2,-1,4,1,-3,-2,-2,4.35,8.03,62.2,32.9,176.3,119.2,3,24,0.3950649032255561,8,19,18,9,0.3723560912214318,13,14,1,25,0.46397520784489754,8,18,0.5337423312883436,99.80981595092025,0.0,0.0,1.0,0.0,0.0,0.0,0.0,0.0,-2.6,-2.9,-0.1,-0.4,-149.9,140.3,0.2323943661971831,38.34507042253521,0.0,0.0,1.0,0.0,0.0,0.0,0.0,0.0,-0.3,-0.4,-0.2,-0.2,-125.6,130.5,0.46153846153846156,66.0,0.0,0.0,1.0,0.0,0.0,0.0,0.0,0.0,-2.6,-3.2,-0.4,-0.4,-128.0,133.0,0.007841232023435969,0.03902096635814416,0.01362709250339443,0.03679020460259257,0.1631742522823272,0.18000340627117478,,,24.936666666666664,21.428749999999994,25.33363636363636,SER,LEU,ALA,GLU,PHE,PHE,GLU,ASP,LEU,ALA,ASP,LYS,PRO,TYR,THR,PHE,GLU,ASP,TYR,ASP,SER,PHE,GLY,SER,GLY,VAL,LEU,THR,VAL,LYS,LEU,GLY,GLY,ASP,LEU,GLY,THR,TYR,VAL,ILE,4.66,8.19,60.6,34.4,172.8,124.53,1,37.0,0.889798022971,5.0
36,1ekg,1ekg_A.pdb,SER,126,A,VAL,PHE,-0.5826120936929658,-0.8127503603706976,-0.6490414356168612,0.7607530577345081,-0.6155468946753196,-0.7881002604082623,-0.6824543288119714,0.7309282379863303,-0.7908678797644896,-0.6119869253152561,-0.6051858077447043,0.796084253144345,-0.9995404488921719,-0.030313215409051558,1,0.0,0.0,0,0.5179832327068726,-0.8553907707209248,1,0.0,0.0,0,-0.9982113002419585,-0.05978461398435727,1,-0.7162227912825266,-0.697871702569653,1,4.975266456604004,-0.7983035528245744,-0.14385261134212646,1,-0.15514166086321668,0.0,0.0,0.0,0,0.0,2.075809955596924,-0.8945981222365976,-0.9652210278394066,1,-2.050468858797595,1.9228368997573853,-0.9909090360749929,-0.945265997117311,1,-2.5227411722395647,0.0,0.0,0.0,0,0.0,0.8183478914590296,0.810675650870793,0.8096234241829748,0,-3,-3,-3,-1,-2,-2,-3,-3,3,1,-2,1,-1,-2,-2,0,-3,-1,4,1,-1,1,0,-1,0,0,0,-1,-2,-2,0,-1,-2,-1,4,1,-3,-2,-2,-2,-3,-3,-3,-2,-3,-3,-3,-1,0,0,-3,0,6,-4,-2,-2,1,3,-1,4.3,8.31,58.3,63.8,174.6,115.7,18,9,0.3723560912214318,13,14,1,25,0.46397520784489754,8,18,19,7,0.39460201371073866,11,15,0.2323943661971831,38.34507042253521,0.0,0.0,1.0,0.0,0.0,0.0,0.0,0.0,-0.3,-0.4,-0.2,-0.2,-125.6,130.5,0.46153846153846156,66.0,0.0,0.0,1.0,0.0,0.0,0.0,0.0,0.0,-2.6,-3.2,-0.4,-0.4,-128.0,133.0,0.38071065989847713,86.80203045685279,0.0,0.0,1.0,0.0,0.0,0.0,0.0,0.0,-0.4,-0.3,-0.2,-0.2,-142.3,127.2,-0.020580422472389823,-0.008288604919094063,-0.0006943187927547225,0.0037857992416127774,0.05523275118601694,-0.03389534546305631,,,21.428749999999994,25.33363636363636,24.202999999999996,LEU,ALA,GLU,PHE,PHE,GLU,ASP,LEU,ALA,ASP,LYS,PRO,TYR,THR,PHE,GLU,ASP,TYR,ASP,VAL,PHE,GLY,SER,GLY,VAL,LEU,THR,VAL,LYS,LEU,GLY,GLY,ASP,LEU,GLY,THR,TYR,VAL,ILE,ASN,4.85,8.88,56.9,65.4,,121.73,1,38.0,0.905879118628,5.0
37,1ekg,1ekg_A.pdb,PHE,127,A,SER,GLY,-0.6155468946753196,-0.7881002604082623,-0.6824543288119714,0.7309282379863303,-0.7908678797644896,-0.6119869253152561,-0.6051858077447043,0.796084253144345,-0.9972271032613272,0.07441844207602173,-0.8717818283149914,0.48989431903194275,0.5179832327068726,-0.8553907707209248,1,0.0,0.0,0,-0.9982113002419585,-0.05978461398435727,1,-0.7162227912825266,-0.697871702569653,1,0.0,0.0,0,0.0,0.0,0,1.9228368997573853,-0.9909090360749929,-0.945265997117311,1,-2.5227411722395647,2.5734126567840576,-0.7685615274857174,-0.9053825143730583,1,-1.2254978112354802,0.0,0.0,0.0,0,0.0,0.0,0.0,0.0,0,0.0,2.3321590423583984,-0.7567559410922,-0.9174271442358903,1,-1.4070408075251426,0.810675650870793,0.8096234241829748,0.7162804346065813,1,-1,1,0,-1,0,0,0,-1,-2,-2,0,-1,-2,-1,4,1,-3,-2,-2,-2,-3,-3,-3,-2,-3,-3,-3,-1,0,0,-3,0,6,-4,-2,-2,1,3,-1,0,-2,0,-1,-3,-2,-2,6,-2,-4,-4,-2,-3,-3,-2,0,-2,-2,-3,-3,4.35,8.3,57.7,39.6,175.8,120.3,1,25,0.46397520784489754,8,18,19,7,0.39460201371073866,11,15,0,17,0.6866548966102404,2,15,0.46153846153846156,66.0,0.0,0.0,1.0,0.0,0.0,0.0,0.0,0.0,-2.6,-3.2,-0.4,-0.4,-128.0,133.0,0.38071065989847713,86.80203045685279,0.0,0.0,1.0,0.0,0.0,0.0,0.0,0.0,-0.4,-0.3,-0.2,-0.2,-142.3,127.2,0.42857142857142855,41.57142857142857,0.0,0.0,1.0,0.0,0.0,0.0,0.0,0.0,-1.8,-1.8,-0.4,-0.0,175.7,150.7,0.01986228240068971,-0.12247825989644968,-0.369409964664267,-0.03556156775338737,-0.17939688037226523,-0.41962465649160074,,,25.33363636363636,24.202999999999996,23.662857142857145,ALA,GLU,PHE,PHE,GLU,ASP,LEU,ALA,ASP,LYS,PRO,TYR,THR,PHE,GLU,ASP,TYR,ASP,VAL,SER,GLY,SER,GLY,VAL,LEU,THR,VAL,LYS,LEU,GLY,GLY,ASP,LEU,GLY,THR,TYR,VAL,ILE,ASN,LYS,5.94,9.02,54.5,41.6,172.7,126.73,1,39.0,0.903805078753,5.0
38,1ekg,1ekg_A.pdb,GLY,128,A,PHE,SER,-0.7908678797644896,-0.6119869253152561,-0.6051858077447043,0.796084253144345,-0.9972271032613272,0.07441844207602173,-0.8717818283149914,0.48989431903194275,0.5833193758849271,0.8122428859135788,0.8091151374551818,0.5876501462102109,-0.9982113002419585,-0.05978461398435727,1,-0.7162227912825266,-0.697871702569653,1,0.0,0.0,0,0.0,0.0,0,0.6032793294921099,-0.797529968469869,1,0.0,0.0,0,0.0,0.0,0.0,0,0.0,0.0,0.0,0.0,0,0.0,2.3321590423583984,-0.7567559410922,-0.9174271442358903,1,-1.4070408075251426,2.1375882625579834,-0.9505993218824552,-0.48819384217526524,1,-1.510355610611021,0.0,0.0,0.0,0,0.0,0.8096234241829748,0.7162804346065813,0.7278611963805915,-2,-3,-3,-3,-2,-3,-3,-3,-1,0,0,-3,0,6,-4,-2,-2,1,3,-1,0,-2,0,-1,-3,-2,-2,6,-2,-4,-4,-2,-3,-3,-2,0,-2,-2,-3,-3,1,-1,1,0,-1,0,0,0,-1,-2,-2,0,-1,-2,-1,4,1,-3,-2,-2,4.62,8.33,45.1,0,174.9,108.8,19,7,0.39460201371073866,11,15,0,17,0.6866548966102404,2,15,1,16,0.9098234665521576,0,17,0.38071065989847713,86.80203045685279,0.0,0.0,1.0,0.0,0.0,0.0,0.0,0.0,-0.4,-0.3,-0.2,-0.2,-142.3,127.2,0.42857142857142855,41.57142857142857,0.0,0.0,1.0,0.0,0.0,0.0,0.0,0.0,-1.8,-1.8,-0.4,-0.0,175.7,150.7,1.0,143.0,0.0,0.0,0.0,0.0,0.0,1.0,0.0,0.0,-0.3,-0.1,-0.3,-0.1,54.3,36.0,0.044518265569911196,0.09399942987237547,,0.06105801501395307,0.29310855631955635,,0.44996187888298456,0.1942594373841079,24.202999999999996,23.662857142857145,24.30181818181818,GLU,PHE,PHE,GLU,ASP,LEU,ALA,ASP,LYS,PRO,TYR,THR,PHE,GLU,ASP,TYR,ASP,VAL,SER,PHE,SER,GLY,VAL,LEU,THR,VAL,LYS,LEU,GLY,GLY,ASP,LEU,GLY,THR,TYR,VAL,ILE,ASN,LYS,GLN,3.825,8.14,45.7,,,115.13,1,40.0,0.850248429432,5.0
39,1ekg,1ekg_A.pdb,SER,129,A,GLY,GLY,-0.9972271032613272,0.07441844207602173,-0.8717818283149914,0.48989431903194275,0.5833193758849271,0.8122428859135788,0.8091151374551818,0.5876501462102109,0.24718076461253338,0.9689693852777617,0.9823178963857448,0.18722059299202384,0.0,0.0,0,0.0,0.0,0,0.6032793294921099,-0.797529968469869,1,0.0,0.0,0,0.0,0.0,0,0.0,0.0,0,2.1375882625579834,-0.9505993218824552,-0.48819384217526524,1,-1.510355610611021,0.0,0.0,0.0,0,0.0,0.0,0.0,0.0,0,0.0,2.8444790840148926,-0.9969678416797829,-0.43972416283681426,1,-0.8917854867477847,0.0,0.0,0.0,0,0.0,0.7162804346065813,0.7278611963805915,0.7539380538770077,0,-2,0,-1,-3,-2,-2,6,-2,-4,-4,-2,-3,-3,-2,0,-2,-2,-3,-3,1,-1,1,0,-1,0,0,0,-1,-2,-2,0,-1,-2,-1,4,1,-3,-2,-2,0,-2,0,-1,-3,-2,-2,6,-2,-4,-4,-2,-3,-3,-2,0,-2,-2,-3,-3,4.3,8.31,58.3,63.8,174.6,115.7,0,17,0.6866548966102404,2,15,1,16,0.9098234665521576,0,17,17,10,1.0826158813730944,11,16,0.42857142857142855,41.57142857142857,0.0,0.0,1.0,0.0,0.0,0.0,0.0,0.0,-1.8,-1.8,-0.4,-0.0,175.7,150.7,1.0,143.0,0.0,0.0,0.0,0.0,0.0,1.0,0.0,0.0,-0.3,-0.1,-0.3,-0.1,54.3,36.0,0.16666666666666666,16.166666666666664,0.0,0.0,0.0,0.0,0.0,1.0,0.0,0.0,-0.2,-2.1,-0.1,-0.5,75.7,10.8,0.020119149994975074,0.036650786785675696,0.015937754708097752,0.03980368077588356,0.30085543955288735,0.11749179582383619,,,23.662857142857145,24.30181818181818,19.46857142857143,PHE,PHE,GLU,ASP,LEU,ALA,ASP,LYS,PRO,TYR,THR,PHE,GLU,ASP,TYR,ASP,VAL,SER,PHE,GLY,GLY,VAL,LEU,THR,VAL,LYS,LEU,GLY,GLY,ASP,LEU,GLY,THR,TYR,VAL,ILE,ASN,LYS,GLN,THR,3.98,8.72,58.6,62.0,,118.23,1,41.0,0.824213814401,5.0
40,1ekg,1ekg_A.pdb,GLY,130,A,SER,VAL,0.5833193758849271,0.8122428859135788,0.8091151374551818,0.5876501462102109,0.24718076461253338,0.9689693852777617,0.9823178963857448,0.18722059299202384,-0.5394833853417741,-0.8419962452055109,-0.5157438811782709,0.8567428138170601,0.6032793294921099,-0.797529968469869,1,0.0,0.0,0,0.0,0.0,0,0.0,0.0,0,-0.9998126338161643,-0.01935709848052258,1,0.0,0.0,0,2.8444790840148926,-0.9969678416797829,-0.43972416283681426,1,-0.8917854867477847,0.0,0.0,0.0,0,0.0,0.0,0.0,0.0,0,0.0,2.2233669757843018,-0.8840826279965756,-0.8589844322788185,1,-1.6183234073623678,2.1375882625579834,-0.48819384217526524,-0.9505993218824552,1,-1.510355610611021,0.7278611963805915,0.7539380538770077,0.889920394905209,1,-1,1,0,-1,0,0,0,-1,-2,-2,0,-1,-2,-1,4,1,-3,-2,-2,0,-2,0,-1,-3,-2,-2,6,-2,-4,-4,-2,-3,-3,-2,0,-2,-2,-3,-3,0,-3,-3,-3,-1,-2,-2,-3,-3,3,1,-2,1,-1,-2,-2,0,-3,-1,4,4.62,8.33,45.1,0,174.9,108.8,1,16,0.9098234665521576,0,17,17,10,1.0826158813730944,11,16,9,18,0.31923902270672616,5,22,1.0,143.0,0.0,0.0,0.0,0.0,0.0,1.0,0.0,0.0,-0.3,-0.1,-0.3,-0.1,54.3,36.0,0.16666666666666666,16.166666666666664,0.0,0.0,0.0,0.0,0.0,1.0,0.0,0.0,-0.2,-2.1,-0.1,-0.5,75.7,10.8,0.39436619718309857,65.07042253521126,0.0,0.0,1.0,0.0,0.0,0.0,0.0,0.0,-1.8,-1.8,-0.2,-0.6,-122.6,121.0,-0.005256455726324489,0.010989886239088503,,0.025778574358183086,0.30693581496454664,,0.009728053803263493,0.03703105892808973,24.30181818181818,19.46857142857143,17.20625,PHE,GLU,ASP,LEU,ALA,ASP,LYS,PRO,TYR,THR,PHE,GLU,ASP,TYR,ASP,VAL,SER,PHE,GLY,SER,VAL,LEU,THR,VAL,LYS,LEU,GLY,GLY,ASP,LEU,GLY,THR,TYR,VAL,ILE,ASN,LYS,GLN,THR,PRO,3.8049999999999997,8.71,46.0,,174.5,106.53,1,42.0,0.821039021494,5.0
41,1ekg,1ekg_A.pdb,VAL,131,A,GLY,LEU,0.24718076461253338,0.9689693852777617,0.9823178963857448,0.18722059299202384,-0.5394833853417741,-0.8419962452055109,-0.5157438811782709,0.8567428138170601,-0.31990402412883095,-0.9474499540061102,-0.5154204106909941,0.8569374541021807,0.0,0.0,0,0.0,0.0,0,-0.9998126338161643,-0.01935709848052258,1,0.0,0.0,0,-0.9780551509376397,0.20834615841035012,1,0.5144285162118446,0.8575332656568373,1,2.2233669757843018,-0.8840826279965756,-0.8589844322788185,1,-1.6183234073623678,2.8710808753967285,-0.6691926135223122,-0.7458109300278605,1,-0.7131303566269159,2.1375882625579834,-0.48819384217526524,-0.9505993218824552,1,-1.510355610611021,2.3321590423583984,-0.9174271442358903,-0.7567559410922,1,-1.4070408075251426,1.8683711290359497,-0.9607344106337927,-0.9989480815631986,1,-2.7170659508581827,0.7539380538770077,0.889920394905209,0.8883503512350546,0,-2,0,-1,-3,-2,-2,6,-2,-4,-4,-2,-3,-3,-2,0,-2,-2,-3,-3,0,-3,-3,-3,-1,-2,-2,-3,-3,3,1,-2,1,-1,-2,-2,0,-3,-1,4,-1,-2,-3,-4,-1,-2,-3,-4,-3,2,4,-2,2,0,-3,-2,-1,-2,-1,1,4.35,8.03,62.2,32.9,176.3,119.2,17,10,1.0826158813730944,11,16,9,18,0.31923902270672616,5,22,15,18,0.4122822736143236,20,13,0.16666666666666666,16.166666666666664,0.0,0.0,0.0,0.0,0.0,1.0,0.0,0.0,-0.2,-2.1,-0.1,-0.5,75.7,10.8,0.39436619718309857,65.07042253521126,0.0,0.0,1.0,0.0,0.0,0.0,0.0,0.0,-1.8,-1.8,-0.2,-0.6,-122.6,121.0,0.0,0.0,0.0,0.0,1.0,0.0,0.0,0.0,0.0,0.0,-3.5,-2.8,-0.5,-0.5,-108.7,121.0,-0.03290644946931861,-0.02071859009797851,-0.004186769530813872,-0.0050828078317122875,0.04936632553120061,-0.07237627449193915,,,19.46857142857143,17.20625,16.464736842105264,GLU,ASP,LEU,ALA,ASP,LYS,PRO,TYR,THR,PHE,GLU,ASP,TYR,ASP,VAL,SER,PHE,GLY,SER,GLY,LEU,THR,VAL,LYS,LEU,GLY,GLY,ASP,LEU,GLY,THR,TYR,VAL,ILE,ASN,LYS,GLN,THR,PRO,ASN,4.5,7.69,62.1,34.4,172.3,119.23,1,43.0,0.86666928858,5.0
42,1ekg,1ekg_A.pdb,LEU,132,A,VAL,THR,-0.5394833853417741,-0.8419962452055109,-0.5157438811782709,0.8567428138170601,-0.31990402412883095,-0.9474499540061102,-0.5154204106909941,0.8569374541021807,-0.4557597034939383,-0.8901028551078338,-0.5442962650377068,0.8388930658111333,-0.9998126338161643,-0.01935709848052258,1,0.0,0.0,0,-0.9780551509376397,0.20834615841035012,1,0.5144285162118446,0.8575332656568373,1,0.47838315517596763,-0.8781512152493363,1,0.0,0.0,0,2.3321590423583984,-0.9174271442358903,-0.7567559410922,1,-1.4070408075251426,2.693186044692993,-0.7870641803686294,-0.7815361405656311,1,-0.9686048564290457,1.8683711290359497,-0.9607344106337927,-0.9989480815631986,1,-2.7170659508581827,1.9824974536895752,-0.9518911046534917,-0.8823128007370753,1,-2.2366954549304854,1.9228368997573853,-0.945265997117311,-0.9909090360749929,1,-2.5227411722395647,0.889920394905209,0.8883503512350546,0.8888016085809717,0,-3,-3,-3,-1,-2,-2,-3,-3,3,1,-2,1,-1,-2,-2,0,-3,-1,4,-1,-2,-3,-4,-1,-2,-3,-4,-3,2,4,-2,2,0,-3,-2,-1,-2,-1,1,0,-1,0,-1,-1,-1,-1,-2,-2,-1,-1,-1,-1,-2,-1,1,5,-2,-2,0,4.32,8.16,55.1,42.4,177.6,121.8,9,18,0.31923902270672616,5,22,15,18,0.4122822736143236,20,13,9,21,0.38611078057665493,6,24,0.39436619718309857,65.07042253521126,0.0,0.0,1.0,0.0,0.0,0.0,0.0,0.0,-1.8,-1.8,-0.2,-0.6,-122.6,121.0,0.0,0.0,0.0,0.0,1.0,0.0,0.0,0.0,0.0,0.0,-3.5,-2.8,-0.5,-0.5,-108.7,121.0,0.323943661971831,52.802816901408455,0.0,0.0,1.0,0.0,0.0,0.0,0.0,0.0,-3.2,-2.6,-0.6,-0.6,-117.1,123.0,-0.0037279503818860773,-0.03747291999963004,0.0016067421901040486,-0.03189887599628262,-0.15662155030270508,-0.22920735338171128,,,17.20625,16.464736842105264,17.65214285714286,ASP,LEU,ALA,ASP,LYS,PRO,TYR,THR,PHE,GLU,ASP,TYR,ASP,VAL,SER,PHE,GLY,SER,GLY,VAL,THR,VAL,LYS,LEU,GLY,GLY,ASP,LEU,GLY,THR,TYR,VAL,ILE,ASN,LYS,GLN,THR,PRO,ASN,LYS,5.34,9.61,53.7,44.7,,133.43,1,44.0,0.901406067093,5.0
43,1ekg,1ekg_A.pdb,THR,133,A,LEU,VAL,-0.31990402412883095,-0.9474499540061102,-0.5154204106909941,0.8569374541021807,-0.4557597034939383,-0.8901028551078338,-0.5442962650377068,0.8388930658111333,-0.5178403843578304,-0.8554772564645623,-0.33094406403156307,0.9436503730101911,-0.9780551509376397,0.20834615841035012,1,0.5144285162118446,0.8575332656568373,1,0.47838315517596763,-0.8781512152493363,1,0.0,0.0,0,-0.9987965066175848,-0.049046288019675054,1,0.0,0.0,0,1.9824974536895752,-0.9518911046534917,-0.8823128007370753,1,-2.2366954549304854,2.5523951053619385,-0.8299346669777886,-0.8015652049165765,1,-1.1714626399925223,1.9228368997573853,-0.945265997117311,-0.9909090360749929,1,-2.5227411722395647,2.075809955596924,-0.9652210278394066,-0.8945981222365976,1,-2.050468858797595,1.9528775215148926,-0.8417501968744957,-0.9647079941678488,1,-2.2977670076101857,0.8883503512350546,0.8888016085809717,0.8894992843089048,-1,-2,-3,-4,-1,-2,-3,-4,-3,2,4,-2,2,0,-3,-2,-1,-2,-1,1,0,-1,0,-1,-1,-1,-1,-2,-2,-1,-1,-1,-1,-2,-1,1,5,-2,-2,0,0,-3,-3,-3,-1,-2,-2,-3,-3,3,1,-2,1,-1,-2,-2,0,-3,-1,4,4.47,8.15,61.8,69.8,174.7,113.6,15,18,0.4122822736143236,20,13,9,21,0.38611078057665493,6,24,18,18,0.33246056130253454,21,15,0.0,0.0,0.0,0.0,1.0,0.0,0.0,0.0,0.0,0.0,-3.5,-2.8,-0.5,-0.5,-108.7,121.0,0.323943661971831,52.802816901408455,0.0,0.0,1.0,0.0,0.0,0.0,0.0,0.0,-3.2,-2.6,-0.6,-0.6,-117.1,123.0,0.0,0.0,0.0,0.0,1.0,0.0,0.0,0.0,0.0,0.0,-3.0,-2.9,-0.5,-0.7,-121.2,109.3,0.021507185177461783,0.011995655582085126,0.004087377781946473,0.0004994665611352206,-0.028598592925378103,0.03392134380464989,,,16.464736842105264,17.65214285714286,15.863125000000002,LEU,ALA,ASP,LYS,PRO,TYR,THR,PHE,GLU,ASP,TYR,ASP,VAL,SER,PHE,GLY,SER,GLY,VAL,LEU,VAL,LYS,LEU,GLY,GLY,ASP,LEU,GLY,THR,TYR,VAL,ILE,ASN,LYS,GLN,THR,PRO,ASN,LYS,GLN,5.05,9.24,61.9,69.8,,124.83,1,45.0,0.907205625906,5.0
44,1ekg,1ekg_A.pdb,VAL,134,A,THR,LYS,-0.4557597034939383,-0.8901028551078338,-0.5442962650377068,0.8388930658111333,-0.5178403843578304,-0.8554772564645623,-0.33094406403156307,0.9436503730101911,-0.027281199577222956,-0.9996277988079502,-0.4409174831766361,0.8975476438770149,0.47838315517596763,-0.8781512152493363,1,0.0,0.0,0,-0.9987965066175848,-0.049046288019675054,1,0.0,0.0,0,-0.9987997631227851,0.048979926356298865,1,-0.991483208456067,-0.13023458584286743,1,2.075809955596924,-0.9652210278394066,-0.8945981222365976,1,-2.050468858797595,2.749382734298706,-0.8263072962656964,-0.7756717166865148,1,-0.9443599909080582,1.9528775215148926,-0.8417501968744957,-0.9647079941678488,1,-2.2977670076101857,1.9487755298614502,-0.9601193095199453,-0.8022228109699657,1,-2.301917793825643,1.993208408355713,-0.9353461139922108,-0.9214288169386815,1,-2.2436079381367184,0.8888016085809717,0.8894992843089048,0.8912345280495961,0,-1,0,-1,-1,-1,-1,-2,-2,-1,-1,-1,-1,-2,-1,1,5,-2,-2,0,0,-3,-3,-3,-1,-2,-2,-3,-3,3,1,-2,1,-1,-2,-2,0,-3,-1,4,-1,2,0,-1,-3,1,1,-2,-1,-3,-2,5,-1,-3,-1,0,-1,-3,-2,-2,4.35,8.03,62.2,32.9,176.3,119.2,9,21,0.38611078057665493,6,24,18,18,0.33246056130253454,21,15,7,23,0.47868301583812817,10,20,0.323943661971831,52.802816901408455,0.0,0.0,1.0,0.0,0.0,0.0,0.0,0.0,-3.2,-2.6,-0.6,-0.6,-117.1,123.0,0.0,0.0,0.0,0.0,1.0,0.0,0.0,0.0,0.0,0.0,-3.0,-2.9,-0.5,-0.7,-121.2,109.3,0.43902439024390244,100.97560975609755,0.0,0.0,1.0,0.0,0.0,0.0,0.0,0.0,-2.9,-2.6,-0.6,-0.2,-91.6,116.2,0.02591624294359553,0.06838876550462268,0.08719499036893616,0.028646214477731698,0.13981126115288459,0.2672056347671879,,,17.65214285714286,15.863125000000002,26.763181818181817,ALA,ASP,LYS,PRO,TYR,THR,PHE,GLU,ASP,TYR,ASP,VAL,SER,PHE,GLY,SER,GLY,VAL,LEU,THR,LYS,LEU,GLY,GLY,ASP,LEU,GLY,THR,TYR,VAL,ILE,ASN,LYS,GLN,THR,PRO,ASN,LYS,GLN,ILE,4.28,9.17,60.9,33.9,173.6,128.13,1,46.0,0.888152325965,5.0
45,1ekg,1ekg_A.pdb,LYS,135,A,VAL,LEU,-0.5178403843578304,-0.8554772564645623,-0.33094406403156307,0.9436503730101911,-0.027281199577222956,-0.9996277988079502,-0.4409174831766361,0.8975476438770149,0.31198065091072513,-0.9500884555962777,0.8522116949828247,-0.5231971205334572,-0.9987965066175848,-0.049046288019675054,1,0.0,0.0,0,-0.9987997631227851,0.048979926356298865,1,-0.991483208456067,-0.13023458584286743,1,0.4859289532912413,-0.8739983137016218,1,-0.9938426096955925,-0.11080102505597263,1,1.9487755298614502,-0.9601193095199453,-0.8022228109699657,1,-2.301917793825643,3.1815285682678223,-0.5186660688828328,-0.7001473010524207,1,-0.3978801270951509,1.993208408355713,-0.9353461139922108,-0.9214288169386815,1,-2.2436079381367184,2.069613456726074,-0.9355490486632907,-0.8169560828565402,1,-1.9803233127123576,2.1003639698028564,-0.9732140943033365,-0.9646324164820813,1,-2.077921362853845,0.8894992843089048,0.8912345280495961,0.89185998007073,0,-3,-3,-3,-1,-2,-2,-3,-3,3,1,-2,1,-1,-2,-2,0,-3,-1,4,-1,2,0,-1,-3,1,1,-2,-1,-3,-2,5,-1,-3,-1,0,-1,-3,-2,-2,-1,-2,-3,-4,-1,-2,-3,-4,-3,2,4,-2,2,0,-3,-2,-1,-2,-1,1,4.17,8.29,56.2,33.1,176.6,120.4,18,18,0.33246056130253454,21,15,7,23,0.47868301583812817,10,20,15,16,0.8566039434340589,15,16,0.0,0.0,0.0,0.0,1.0,0.0,0.0,0.0,0.0,0.0,-3.0,-2.9,-0.5,-0.7,-121.2,109.3,0.43902439024390244,100.97560975609755,0.0,0.0,1.0,0.0,0.0,0.0,0.0,0.0,-2.9,-2.6,-0.6,-0.2,-91.6,116.2,0.012195121951219513,2.329268292682927,0.0,0.0,0.0,0.0,0.0,0.0,0.0,1.0,-2.6,-0.8,-0.7,-0.2,-71.8,-31.5,0.015687885235937934,0.028425396433414605,0.017227882918996608,0.0327475576668189,0.30251602263566185,0.05573608731848227,,,15.863125000000002,26.763181818181817,20.16263157894737,ASP,LYS,PRO,TYR,THR,PHE,GLU,ASP,TYR,ASP,VAL,SER,PHE,GLY,SER,GLY,VAL,LEU,THR,VAL,LEU,GLY,GLY,ASP,LEU,GLY,THR,TYR,VAL,ILE,ASN,LYS,GLN,THR,PRO,ASN,LYS,GLN,ILE,TRP,4.57,8.9,55.2,33.3,174.0,130.63,1,47.0,0.876356717608,5.0
46,1ekg,1ekg_A.pdb,LEU,136,A,LYS,GLY,-0.027281199577222956,-0.9996277988079502,-0.4409174831766361,0.8975476438770149,0.31198065091072513,-0.9500884555962777,0.8522116949828247,-0.5231971205334572,-0.053423910673081255,0.998571923182499,-0.9977384474441382,-0.06721599877827224,-0.9987997631227851,0.048979926356298865,1,-0.991483208456067,-0.13023458584286743,1,0.4859289532912413,-0.8739983137016218,1,-0.9938426096955925,-0.11080102505597263,1,0.0,0.0,0,0.0,0.0,0,2.069613456726074,-0.9355490486632907,-0.8169560828565402,1,-1.9803233127123576,0.0,0.0,0.0,0,0.0,2.1003639698028564,-0.9732140943033365,-0.9646324164820813,1,-2.077921362853845,2.6405396461486816,-0.9912326118390663,-0.7790839068654205,1,-1.2842970715550515,3.4464430809020996,-0.7593712914508061,-0.7645072888874374,1,-0.4698091897312273,0.8912345280495961,0.89185998007073,0.8824450966032314,-1,2,0,-1,-3,1,1,-2,-1,-3,-2,5,-1,-3,-1,0,-1,-3,-2,-2,-1,-2,-3,-4,-1,-2,-3,-4,-3,2,4,-2,2,0,-3,-2,-1,-2,-1,1,0,-2,0,-1,-3,-2,-2,6,-2,-4,-4,-2,-3,-3,-2,0,-2,-2,-3,-3,4.32,8.16,55.1,42.4,177.6,121.8,7,23,0.47868301583812817,10,20,15,16,0.8566039434340589,15,16,9,13,1.3075560121946848,10,12,0.43902439024390244,100.97560975609755,0.0,0.0,1.0,0.0,0.0,0.0,0.0,0.0,-2.9,-2.6,-0.6,-0.2,-91.6,116.2,0.012195121951219513,2.329268292682927,0.0,0.0,0.0,0.0,0.0,0.0,0.0,1.0,-2.6,-0.8,-0.7,-0.2,-71.8,-31.5,0.03571428571428571,3.464285714285714,0.0,0.0,0.0,0.0,0.0,0.0,0.0,1.0,-0.6,-3.3,-0.2,-0.3,93.1,-176.1,-0.02717407195961264,-0.05143355811869425,-0.03245231436612212,-0.0074869232805356584,-0.05112680271683053,-0.322497828540933,,,26.763181818181817,20.16263157894737,23.50142857142857,LYS,PRO,TYR,THR,PHE,GLU,ASP,TYR,ASP,VAL,SER,PHE,GLY,SER,GLY,VAL,LEU,THR,VAL,LYS,GLY,GLY,ASP,LEU,GLY,THR,TYR,VAL,ILE,ASN,LYS,GLN,THR,PRO,ASN,LYS,GLN,ILE,TRP,LEU,4.43,8.49,57.1,43.9,174.8,123.93,1,48.0,0.874365637956,5.0
47,1ekg,1ekg_A.pdb,GLY,137,A,LEU,GLY,0.31198065091072513,-0.9500884555962777,0.8522116949828247,-0.5231971205334572,-0.053423910673081255,0.998571923182499,-0.9977384474441382,-0.06721599877827224,0.8539933278943348,0.5202839570003664,0.5134548368105697,0.8581166182727329,0.4859289532912413,-0.8739983137016218,1,-0.9938426096955925,-0.11080102505597263,1,0.0,0.0,0,0.0,0.0,0,0.0,0.0,0,0.0,0.0,0,2.6405396461486816,-0.9912326118390663,-0.7790839068654205,1,-1.2842970715550515,0.0,0.0,0.0,0,0.0,3.4464430809020996,-0.7593712914508061,-0.7645072888874374,1,-0.4698091897312273,1.856518030166626,-0.9940236363196128,-0.8328799708193869,1,-2.6303106839843444,2.328805923461914,-0.1621884031596846,-0.8450448510875441,1,-0.8114495932282869,0.89185998007073,0.8824450966032314,0.8934175905731737,-1,-2,-3,-4,-1,-2,-3,-4,-3,2,4,-2,2,0,-3,-2,-1,-2,-1,1,0,-2,0,-1,-3,-2,-2,6,-2,-4,-4,-2,-3,-3,-2,0,-2,-2,-3,-3,0,-2,0,-1,-3,-2,-2,6,-2,-4,-4,-2,-3,-3,-2,0,-2,-2,-3,-3,4.62,8.33,45.1,0,174.9,108.8,15,16,0.8566039434340589,15,16,9,13,1.3075560121946848,10,12,4,12,0.7882849220359283,8,8,0.012195121951219513,2.329268292682927,0.0,0.0,0.0,0.0,0.0,0.0,0.0,1.0,-2.6,-0.8,-0.7,-0.2,-71.8,-31.5,0.03571428571428571,3.464285714285714,0.0,0.0,0.0,0.0,0.0,0.0,0.0,1.0,-0.6,-3.3,-0.2,-0.3,93.1,-176.1,0.16666666666666666,16.166666666666664,0.0,0.0,0.0,0.0,0.0,1.0,0.0,0.0,-0.3,-0.0,-0.1,-0.0,31.4,59.1,0.06700257837905113,0.01995495781548146,,0.0003295227539464135,0.029593498488156067,,0.045875604830364396,-0.023046525328095077,20.16263157894737,23.50142857142857,31.187142857142856,PRO,TYR,THR,PHE,GLU,ASP,TYR,ASP,VAL,SER,PHE,GLY,SER,GLY,VAL,LEU,THR,VAL,LYS,LEU,GLY,ASP,LEU,GLY,THR,TYR,VAL,ILE,ASN,LYS,GLN,THR,PRO,ASN,LYS,GLN,ILE,TRP,LEU,SER,3.895,7.57,42.7,,177.2,103.13,1,49.0,0.88772867805,5.0
48,1ekg,1ekg_A.pdb,GLY,138,A,GLY,ASP,-0.053423910673081255,0.998571923182499,-0.9977384474441382,-0.06721599877827224,0.8539933278943348,0.5202839570003664,0.5134548368105697,0.8581166182727329,0.658584534475268,0.7525067514315035,0.9563043108202017,0.29237316071537583,0.0,0.0,0,0.0,0.0,0,0.0,0.0,0,0.0,0.0,0,0.29166825698109644,0.9565195386763456,1,0.16644990533245957,-0.9860499120302254,1,1.856518030166626,-0.9940236363196128,-0.8328799708193869,1,-2.6303106839843444,0.0,0.0,0.0,0,0.0,2.328805923461914,-0.1621884031596846,-0.8450448510875441,1,-0.8114495932282869,2.7448909282684326,-0.8494457676648989,-0.47209908517075605,1,-0.844065939914966,4.6361403465271,-0.6460097855586406,-0.7297609900963813,1,-0.28821166839683043,0.8824450966032314,0.8934175905731737,0.7915812152512716,0,-2,0,-1,-3,-2,-2,6,-2,-4,-4,-2,-3,-3,-2,0,-2,-2,-3,-3,0,-2,0,-1,-3,-2,-2,6,-2,-4,-4,-2,-3,-3,-2,0,-2,-2,-3,-3,-2,-2,1,6,-3,0,2,-1,-1,-3,-4,-1,-3,-3,-1,0,-1,-4,-3,-3,4.62,8.33,45.1,0,174.9,108.8,9,13,1.3075560121946848,10,12,4,12,0.7882849220359283,8,8,0,16,0.9283450882867602,0,16,0.03571428571428571,3.464285714285714,0.0,0.0,0.0,0.0,0.0,0.0,0.0,1.0,-0.6,-3.3,-0.2,-0.3,93.1,-176.1,0.16666666666666666,16.166666666666664,0.0,0.0,0.0,0.0,0.0,1.0,0.0,0.0,-0.3,-0.0,-0.1,-0.0,31.4,59.1,0.9877300613496932,184.70552147239263,0.0,0.0,0.0,0.0,0.0,1.0,0.0,0.0,-0.2,-0.3,-0.0,-0.1,48.8,17.0,0.07723043324637174,0.17717908303658952,,0.08353943221920208,0.28710346328200853,,0.2757703895714944,1.282008386303747,23.50142857142857,31.187142857142856,37.63916666666666,TYR,THR,PHE,GLU,ASP,TYR,ASP,VAL,SER,PHE,GLY,SER,GLY,VAL,LEU,THR,VAL,LYS,LEU,GLY,ASP,LEU,GLY,THR,TYR,VAL,ILE,ASN,LYS,GLN,THR,PRO,ASN,LYS,GLN,ILE,TRP,LEU,SER,SER,,,,,,,1,50.0,,5.0
49,1ekg,1ekg_A.pdb,ASP,139,A,GLY,LEU,0.8539933278943348,0.5202839570003664,0.5134548368105697,0.8581166182727329,0.658584534475268,0.7525067514315035,0.9563043108202017,0.29237316071537583,0.18912127618797356,-0.9819537376541893,0.9681775414641391,-0.250264356640044,0.0,0.0,0,0.0,0.0,0,0.29166825698109644,0.9565195386763456,1,0.16644990533245957,-0.9860499120302254,1,0.34779411485298717,-0.9375709326091691,1,-0.9980277483575243,-0.06277430611651694,1,2.7448909282684326,-0.8494457676648989,-0.47209908517075605,1,-0.844065939914966,0.0,0.0,0.0,0,0.0,4.6361403465271,-0.6460097855586406,-0.7297609900963813,1,-0.28821166839683043,0.0,0.0,0.0,0,0.0,1.856518030166626,-0.8328799708193869,-0.9940236363196128,1,-2.6303106839843444,0.8934175905731737,0.7915812152512716,0.8577340439279812,0,-2,0,-1,-3,-2,-2,6,-2,-4,-4,-2,-3,-3,-2,0,-2,-2,-3,-3,-2,-2,1,6,-3,0,2,-1,-1,-3,-4,-1,-3,-3,-1,0,-1,-4,-3,-3,-1,-2,-3,-4,-1,-2,-3,-4,-3,2,4,-2,2,0,-3,-2,-1,-2,-1,1,4.71,8.34,54.2,41.1,176.3,120.4,4,12,0.7882849220359283,8,8,0,16,0.9283450882867602,0,16,9,15,0.7720129809752547,18,6,0.16666666666666666,16.166666666666664,0.0,0.0,0.0,0.0,0.0,1.0,0.0,0.0,-0.3,-0.0,-0.1,-0.0,31.4,59.1,0.9877300613496932,184.70552147239263,0.0,0.0,0.0,0.0,0.0,1.0,0.0,0.0,-0.2,-0.3,-0.0,-0.1,48.8,17.0,0.29878048780487804,57.0670731707317,0.0,0.0,0.0,0.0,0.0,0.0,0.0,1.0,-3.3,-0.2,-0.2,-0.1,-79.1,-14.5,0.021813393647295898,0.03458139667637225,0.014604445538575983,0.038233497129823914,0.21531848520148178,0.09307723144245164,,,31.187142857142856,37.63916666666666,26.76,THR,PHE,GLU,ASP,TYR,ASP,VAL,SER,PHE,GLY,SER,GLY,VAL,LEU,THR,VAL,LYS,LEU,GLY,GLY,LEU,GLY,THR,TYR,VAL,ILE,ASN,LYS,GLN,THR,PRO,ASN,LYS,GLN,ILE,TRP,LEU,SER,SER,PRO,,,,,,,1,51.0,,5.0
50,1ekg,1ekg_A.pdb,LEU,140,A,ASP,GLY,0.658584534475268,0.7525067514315035,0.9563043108202017,0.29237316071537583,0.18912127618797356,-0.9819537376541893,0.9681775414641391,-0.250264356640044,-0.15412330831658036,0.9880516210368526,-0.9980393130069708,-0.0625901724919636,0.29166825698109644,0.9565195386763456,1,0.16644990533245957,-0.9860499120302254,1,0.34779411485298717,-0.9375709326091691,1,-0.9980277483575243,-0.06277430611651694,1,0.0,0.0,0,0.0,0.0,0,0.0,0.0,0.0,0,0.0,0.0,0.0,0.0,0,0.0,1.856518030166626,-0.8328799708193869,-0.9940236363196128,1,-2.6303106839843444,3.00608491897583,-0.9965506444600795,-0.1674923224310312,1,-0.5360667520557835,3.617018938064575,-0.6305486907955232,-0.5805584962668052,1,-0.24749788254057778,0.7915812152512716,0.8577340439279812,0.7997525881283916,-2,-2,1,6,-3,0,2,-1,-1,-3,-4,-1,-3,-3,-1,0,-1,-4,-3,-3,-1,-2,-3,-4,-1,-2,-3,-4,-3,2,4,-2,2,0,-3,-2,-1,-2,-1,1,0,-2,0,-1,-3,-2,-2,6,-2,-4,-4,-2,-3,-3,-2,0,-2,-2,-3,-3,4.32,8.16,55.1,42.4,177.6,121.8,0,16,0.9283450882867602,0,16,9,15,0.7720129809752547,18,6,5,20,1.3048062542907224,13,12,0.9877300613496932,184.70552147239263,0.0,0.0,0.0,0.0,0.0,1.0,0.0,0.0,-0.2,-0.3,-0.0,-0.1,48.8,17.0,0.29878048780487804,57.0670731707317,0.0,0.0,0.0,0.0,0.0,0.0,0.0,1.0,-3.3,-0.2,-0.2,-0.1,-79.1,-14.5,0.30952380952380953,30.023809523809526,0.0,0.0,0.0,0.0,0.0,0.0,0.0,1.0,-0.3,-2.6,-0.0,-0.6,98.9,-176.4,0.008844622830049281,0.02214575742451571,0.010019434731506778,0.028998290526676553,0.2939502442337378,0.05633567669409108,,,37.63916666666666,26.76,20.154285714285717,PHE,GLU,ASP,TYR,ASP,VAL,SER,PHE,GLY,SER,GLY,VAL,LEU,THR,VAL,LYS,LEU,GLY,GLY,ASP,GLY,THR,TYR,VAL,ILE,ASN,LYS,GLN,THR,PRO,ASN,LYS,GLN,ILE,TRP,LEU,SER,SER,PRO,SER,4.19,8.38,56.5,44.1,,120.33,1,52.0,0.861797128745,5.0
51,1ekg,1ekg_A.pdb,GLY,141,A,LEU,THR,0.18912127618797356,-0.9819537376541893,0.9681775414641391,-0.250264356640044,-0.15412330831658036,0.9880516210368526,-0.9980393130069708,-0.0625901724919636,-0.624414452366128,-0.7810932029382335,-0.7778735579706912,0.6284208206369499,0.34779411485298717,-0.9375709326091691,1,-0.9980277483575243,-0.06277430611651694,1,0.0,0.0,0,0.0,0.0,0,0.47870583937607153,-0.8779753523574855,1,0.0,0.0,0,3.00608491897583,-0.9965506444600795,-0.1674923224310312,1,-0.5360667520557835,0.0,0.0,0.0,0,0.0,3.617018938064575,-0.6305486907955232,-0.5805584962668052,1,-0.24749788254057778,2.1003639698028564,-0.9646324164820813,-0.9732140943033365,1,-2.077921362853845,0.0,0.0,0.0,0,0.0,0.8577340439279812,0.7997525881283916,0.8461300734166162,-1,-2,-3,-4,-1,-2,-3,-4,-3,2,4,-2,2,0,-3,-2,-1,-2,-1,1,0,-2,0,-1,-3,-2,-2,6,-2,-4,-4,-2,-3,-3,-2,0,-2,-2,-3,-3,0,-1,0,-1,-1,-1,-1,-2,-2,-1,-1,-1,-1,-2,-1,1,5,-2,-2,0,4.62,8.33,45.1,0,174.9,108.8,9,15,0.7720129809752547,18,6,5,20,1.3048062542907224,13,12,12,16,0.4115175694820399,10,18,0.29878048780487804,57.0670731707317,0.0,0.0,0.0,0.0,0.0,0.0,0.0,1.0,-3.3,-0.2,-0.2,-0.1,-79.1,-14.5,0.30952380952380953,30.023809523809526,0.0,0.0,0.0,0.0,0.0,0.0,0.0,1.0,-0.3,-2.6,-0.0,-0.6,98.9,-176.4,0.4014084507042254,65.42957746478874,0.0,0.0,1.0,0.0,0.0,0.0,0.0,0.0,-0.2,-0.4,-0.1,-0.2,-128.6,141.1,0.010239139047667295,0.018992869660280833,,0.011617358172097412,0.0987495957081768,,0.06514588320012514,0.08077860121159859,26.76,20.154285714285717,17.764285714285712,GLU,ASP,TYR,ASP,VAL,SER,PHE,GLY,SER,GLY,VAL,LEU,THR,VAL,LYS,LEU,GLY,GLY,ASP,LEU,THR,TYR,VAL,ILE,ASN,LYS,GLN,THR,PRO,ASN,LYS,GLN,ILE,TRP,LEU,SER,SER,PRO,SER,SER,3.915,8.05,44.4,,177.7,105.33,1,53.0,0.856103624084,5.0
52,1ekg,1ekg_A.pdb,THR,142,A,GLY,TYR,-0.15412330831658036,0.9880516210368526,-0.9980393130069708,-0.0625901724919636,-0.624414452366128,-0.7810932029382335,-0.7778735579706912,0.6284208206369499,-0.27460544598778047,-0.9615569920882756,-0.7735871321694477,0.6336899470102468,0.0,0.0,0,0.0,0.0,0,0.47870583937607153,-0.8779753523574855,1,0.0,0.0,0,0.15899412500093887,-0.9872795289152844,1,0.0827920092802904,0.9965668483344869,1,2.1003639698028564,-0.9646324164820813,-0.9732140943033365,1,-2.077921362853845,2.510479211807251,-0.7536644701746174,-0.7297123818023623,1,-1.2152134547176472,0.0,0.0,0.0,0,0.0,2.448385238647461,-0.872389402254891,-0.2853476654960762,1,-0.9183676515375178,1.9487755298614502,-0.8022228109699657,-0.9601193095199453,1,-2.301917793825643,0.7997525881283916,0.8461300734166162,0.8708861989904425,0,-2,0,-1,-3,-2,-2,6,-2,-4,-4,-2,-3,-3,-2,0,-2,-2,-3,-3,0,-1,0,-1,-1,-1,-1,-2,-2,-1,-1,-1,-1,-2,-1,1,5,-2,-2,0,-2,-2,-2,-3,-2,-1,-2,-3,2,-1,-1,-2,-1,3,-3,-2,-2,2,7,-1,4.47,8.15,61.8,69.8,174.7,113.6,5,20,1.3048062542907224,13,12,12,16,0.4115175694820399,10,18,21,15,0.5191041594641024,22,14,0.30952380952380953,30.023809523809526,0.0,0.0,0.0,0.0,0.0,0.0,0.0,1.0,-0.3,-2.6,-0.0,-0.6,98.9,-176.4,0.4014084507042254,65.42957746478874,0.0,0.0,1.0,0.0,0.0,0.0,0.0,0.0,-0.2,-0.4,-0.1,-0.2,-128.6,141.1,0.013513513513513514,3.445945945945946,0.0,0.0,1.0,0.0,0.0,0.0,0.0,0.0,-2.9,-3.0,-0.4,-0.4,-105.9,140.7,0.01995744925759663,0.01681563180685352,0.009496162451705698,0.015994765150346698,0.1417254021923481,0.017594872042944368,,,20.154285714285717,17.764285714285712,17.153809523809525,ASP,TYR,ASP,VAL,SER,PHE,GLY,SER,GLY,VAL,LEU,THR,VAL,LYS,LEU,GLY,GLY,ASP,LEU,GLY,TYR,VAL,ILE,ASN,LYS,GLN,THR,PRO,ASN,LYS,GLN,ILE,TRP,LEU,SER,SER,PRO,SER,SER,GLY,5.34,7.93,61.2,72.4,172.3,114.83,1,54.0,0.860153663479,5.0
53,1ekg,1ekg_A.pdb,TYR,143,A,THR,VAL,-0.624414452366128,-0.7810932029382335,-0.7778735579706912,0.6284208206369499,-0.27460544598778047,-0.9615569920882756,-0.7735871321694477,0.6336899470102468,-0.6260136041710851,-0.7798121359614301,-0.5784619936217494,0.8157093366727827,0.47870583937607153,-0.8779753523574855,1,0.0,0.0,0,0.15899412500093887,-0.9872795289152844,1,0.0827920092802904,0.9965668483344869,1,-0.9930135062617218,0.11800074737814736,1,0.0,0.0,0,2.448385238647461,-0.872389402254891,-0.2853476654960762,1,-0.9183676515375178,2.522273302078247,-0.9686955859637892,-0.8368999756524075,1,-1.3777270127025216,1.9487755298614502,-0.8022228109699657,-0.9601193095199453,1,-2.301917793825643,1.9528775215148926,-0.9647079941678488,-0.8417501968744957,1,-2.2977670076101857,2.369518995285034,-0.7271988560099247,-0.9105107377797034,1,-1.320088847546768,0.8461300734166162,0.8708861989904425,0.8857399093822726,0,-1,0,-1,-1,-1,-1,-2,-2,-1,-1,-1,-1,-2,-1,1,5,-2,-2,0,-2,-2,-2,-3,-2,-1,-2,-3,2,-1,-1,-2,-1,3,-3,-2,-2,2,7,-1,0,-3,-3,-3,-1,-2,-2,-3,-3,3,1,-2,1,-1,-2,-2,0,-3,-1,4,4.66,8.12,57.9,38.8,175.9,120.3,12,16,0.4115175694820399,10,18,21,15,0.5191041594641024,22,14,6,27,0.4296498467588002,9,24,0.4014084507042254,65.42957746478874,0.0,0.0,1.0,0.0,0.0,0.0,0.0,0.0,-0.2,-0.4,-0.1,-0.2,-128.6,141.1,0.013513513513513514,3.445945945945946,0.0,0.0,1.0,0.0,0.0,0.0,0.0,0.0,-2.9,-3.0,-0.4,-0.4,-105.9,140.7,0.30985915492957744,51.12676056338028,0.0,0.0,1.0,0.0,0.0,0.0,0.0,0.0,-1.6,-2.5,-0.4,-0.4,-128.8,125.3,-0.01694620495420004,-0.061653580385860066,-0.30287135995131387,-0.00835094208601997,-0.13827716740773063,0.04873900178750195,,,17.764285714285712,17.153809523809525,16.979999999999997,TYR,ASP,VAL,SER,PHE,GLY,SER,GLY,VAL,LEU,THR,VAL,LYS,LEU,GLY,GLY,ASP,LEU,GLY,THR,VAL,ILE,ASN,LYS,GLN,THR,PRO,ASN,LYS,GLN,ILE,TRP,LEU,SER,SER,PRO,SER,SER,GLY,PRO,4.99,9.33,57.8,41.9,174.2,125.33,1,55.0,0.867993697219,5.0
54,1ekg,1ekg_A.pdb,VAL,144,A,TYR,ILE,-0.27460544598778047,-0.9615569920882756,-0.7735871321694477,0.6336899470102468,-0.6260136041710851,-0.7798121359614301,-0.5784619936217494,0.8157093366727827,-0.6177903436775509,-0.7863428585920861,-0.5699704029470118,0.8216652236552433,0.15899412500093887,-0.9872795289152844,1,0.0827920092802904,0.9965668483344869,1,-0.9930135062617218,0.11800074737814736,1,0.0,0.0,0,0.5632384763667235,-0.8262943898757221,1,-0.994143943314662,0.10806396240548481,1,1.9528775215148926,-0.9647079941678488,-0.8417501968744957,1,-2.2977670076101857,2.557811737060547,-0.8094246126128556,-0.7660636172748712,1,-1.1065002033692168,2.369518995285034,-0.7271988560099247,-0.9105107377797034,1,-1.320088847546768,2.022547721862793,-0.8950890310630081,-0.9099500502510988,1,-2.1043648569772824,1.9824974536895752,-0.8823128007370753,-0.9518911046534917,1,-2.2366954549304854,0.8708861989904425,0.8857399093822726,0.886985867624184,-2,-2,-2,-3,-2,-1,-2,-3,2,-1,-1,-2,-1,3,-3,-2,-2,2,7,-1,0,-3,-3,-3,-1,-2,-2,-3,-3,3,1,-2,1,-1,-2,-2,0,-3,-1,4,-1,-3,-3,-3,-1,-3,-3,-4,-3,4,2,-3,1,0,-3,-2,-1,-3,-1,3,4.35,8.03,62.2,32.9,176.3,119.2,21,15,0.5191041594641024,22,14,6,27,0.4296498467588002,9,24,21,19,0.4858740101240772,19,21,0.013513513513513514,3.445945945945946,0.0,0.0,1.0,0.0,0.0,0.0,0.0,0.0,-2.9,-3.0,-0.4,-0.4,-105.9,140.7,0.30985915492957744,51.12676056338028,0.0,0.0,1.0,0.0,0.0,0.0,0.0,0.0,-1.6,-2.5,-0.4,-0.4,-128.8,125.3,0.0,0.0,0.0,0.0,1.0,0.0,0.0,0.0,0.0,0.0,-2.8,-3.5,-0.4,-0.3,-128.2,124.7,-0.014430558359877364,-0.014064194545262006,-0.007661604406970882,-0.013564329977628164,-0.10117860755777273,-0.028548746686098712,,,17.153809523809525,16.979999999999997,16.379473684210524,ASP,VAL,SER,PHE,GLY,SER,GLY,VAL,LEU,THR,VAL,LYS,LEU,GLY,GLY,ASP,LEU,GLY,THR,TYR,ILE,ASN,LYS,GLN,THR,PRO,ASN,LYS,GLN,ILE,TRP,LEU,SER,SER,PRO,SER,SER,GLY,PRO,LYS,4.95,7.92,62.0,34.7,175.3,119.53,1,56.0,0.88287716296,5.0
55,1ekg,1ekg_A.pdb,ILE,145,A,VAL,ASN,-0.6260136041710851,-0.7798121359614301,-0.5784619936217494,0.8157093366727827,-0.6177903436775509,-0.7863428585920861,-0.5699704029470118,0.8216652236552433,-0.8151213965526996,-0.5792901767525294,-0.9049735184756491,0.4254678963891448,-0.9930135062617218,0.11800074737814736,1,0.0,0.0,0,0.5632384763667235,-0.8262943898757221,1,-0.994143943314662,0.10806396240548481,1,0.4070240107919654,0.9134174591274364,1,0.07129443695994936,0.9974553139156479,1,2.022547721862793,-0.8950890310630081,-0.9099500502510988,1,-2.1043648569772824,2.457681894302368,-0.8474834011690597,-0.8143163628931763,1,-1.3052296065886067,1.9824974536895752,-0.8823128007370753,-0.9518911046534917,1,-2.2366954549304854,1.8683711290359497,-0.9989480815631986,-0.9607344106337927,1,-2.7170659508581827,2.1205403804779053,-0.846471233366501,-0.9180428717488849,1,-1.837884134178742,0.8857399093822726,0.886985867624184,0.8861788505746103,0,-3,-3,-3,-1,-2,-2,-3,-3,3,1,-2,1,-1,-2,-2,0,-3,-1,4,-1,-3,-3,-3,-1,-3,-3,-4,-3,4,2,-3,1,0,-3,-2,-1,-3,-1,3,-2,0,6,1,-3,0,0,0,1,-3,-3,0,-2,-3,-2,1,0,-4,-2,-3,4.73,8.0,61.1,38.8,176.4,119.9,6,27,0.4296498467588002,9,24,21,19,0.4858740101240772,19,21,11,25,0.3822237231582198,12,24,0.30985915492957744,51.12676056338028,0.0,0.0,1.0,0.0,0.0,0.0,0.0,0.0,-1.6,-2.5,-0.4,-0.4,-128.8,125.3,0.0,0.0,0.0,0.0,1.0,0.0,0.0,0.0,0.0,0.0,-2.8,-3.5,-0.4,-0.3,-128.2,124.7,0.2356687898089172,44.07006369426752,0.0,0.0,1.0,0.0,0.0,0.0,0.0,0.0,-2.4,-3.1,-0.4,-0.2,-144.6,154.8,-0.010745524732564193,-0.01682082358735923,-0.002775824724586203,-0.010637386643229116,-0.05019279533626159,-0.08520460781519058,,,16.979999999999997,16.379473684210524,17.595000000000002,VAL,SER,PHE,GLY,SER,GLY,VAL,LEU,THR,VAL,LYS,LEU,GLY,GLY,ASP,LEU,GLY,THR,TYR,VAL,ASN,LYS,GLN,THR,PRO,ASN,LYS,GLN,ILE,TRP,LEU,SER,SER,PRO,SER,SER,GLY,PRO,LYS,ARG,5.23,9.7,60.4,40.6,175.5,131.23,1,57.0,0.883254789802,5.0
56,1ekg,1ekg_A.pdb,ASN,146,A,ILE,LYS,-0.6177903436775509,-0.7863428585920861,-0.5699704029470118,0.8216652236552433,-0.8151213965526996,-0.5792901767525294,-0.9049735184756491,0.4254678963891448,0.21681540923081383,-0.976212619422672,-0.8922027704822972,0.45163504773623725,0.5632384763667235,-0.8262943898757221,1,-0.994143943314662,0.10806396240548481,1,0.4070240107919654,0.9134174591274364,1,0.07129443695994936,0.9974553139156479,1,0.5668607890055952,0.8238135989943077,1,-0.9880168397690281,-0.15434611861923409,1,1.8683711290359497,-0.9989480815631986,-0.9607344106337927,1,-2.7170659508581827,2.4311585426330566,-0.8714369163194374,-0.6515431147045813,1,-1.2527939723285375,2.1205403804779053,-0.846471233366501,-0.9180428717488849,1,-1.837884134178742,1.986077904701233,-0.9613132973382379,-0.9691125722840146,1,-2.362029000360967,2.2233669757843018,-0.8589844322788185,-0.8840826279965756,1,-1.6183234073623678,0.886985867624184,0.8861788505746103,0.8760178853503151,-1,-3,-3,-3,-1,-3,-3,-4,-3,4,2,-3,1,0,-3,-2,-1,-3,-1,3,-2,0,6,1,-3,0,0,0,1,-3,-3,0,-2,-3,-2,1,0,-4,-2,-3,-1,2,0,-1,-3,1,1,-2,-1,-3,-2,5,-1,-3,-1,0,-1,-3,-2,-2,4.48,8.4,53.1,38.9,175.2,118.7,21,19,0.4858740101240772,19,21,11,25,0.3822237231582198,12,24,20,15,0.5437867333992982,18,17,0.0,0.0,0.0,0.0,1.0,0.0,0.0,0.0,0.0,0.0,-2.8,-3.5,-0.4,-0.3,-128.2,124.7,0.2356687898089172,44.07006369426752,0.0,0.0,1.0,0.0,0.0,0.0,0.0,0.0,-2.4,-3.1,-0.4,-0.2,-144.6,154.8,0.22926829268292684,52.73170731707317,0.0,0.0,1.0,0.0,0.0,0.0,0.0,0.0,-2.1,-0.2,-0.3,-0.2,-77.5,153.2,0.0011475443339739174,-0.009497566586200731,-0.004242630040862094,-0.013000198824055696,-0.13841522966370248,-0.03569748478719244,,,16.379473684210524,17.595000000000002,30.459545454545456,SER,PHE,GLY,SER,GLY,VAL,LEU,THR,VAL,LYS,LEU,GLY,GLY,ASP,LEU,GLY,THR,TYR,VAL,ILE,LYS,GLN,THR,PRO,ASN,LYS,GLN,ILE,TRP,LEU,SER,SER,PRO,SER,SER,GLY,PRO,LYS,ARG,TYR,5.82,9.62,52.3,43.5,,121.73,1,58.0,0.864072493698,5.0
57,1ekg,1ekg_A.pdb,LYS,147,A,ASN,GLN,-0.8151213965526996,-0.5792901767525294,-0.9049735184756491,0.4254678963891448,0.21681540923081383,-0.976212619422672,-0.8922027704822972,0.45163504773623725,-0.7745935497302087,-0.6324593526198776,0.13879842474725715,0.9903206537721406,0.4070240107919654,0.9134174591274364,1,0.07129443695994936,0.9974553139156479,1,0.5668607890055952,0.8238135989943077,1,-0.9880168397690281,-0.15434611861923409,1,-0.7161104094185191,-0.6979870210272114,1,0.4689400735540863,-0.8832299855728903,1,1.986077904701233,-0.9613132973382379,-0.9691125722840146,1,-2.362029000360967,2.940903425216675,-0.7368268847315989,-0.38726182244896723,1,-1.2257636618013532,2.2233669757843018,-0.8589844322788185,-0.8840826279965756,1,-1.6183234073623678,3.462709426879883,-0.4191472525354149,-0.45508647394536805,1,-0.46719838838686595,2.2190463542938232,-0.7527607683085191,-0.865154086526781,1,-1.7471650940594017,0.8861788505746103,0.8760178853503151,0.8742068275174003,-2,0,6,1,-3,0,0,0,1,-3,-3,0,-2,-3,-2,1,0,-4,-2,-3,-1,2,0,-1,-3,1,1,-2,-1,-3,-2,5,-1,-3,-1,0,-1,-3,-2,-2,-1,1,0,0,-3,5,2,-2,0,-3,-2,1,0,-3,-1,0,-1,-2,-1,-2,4.17,8.29,56.2,33.1,176.6,120.4,11,25,0.3822237231582198,12,24,20,15,0.5437867333992982,18,17,8,16,0.5376099526698425,11,13,0.2356687898089172,44.07006369426752,0.0,0.0,1.0,0.0,0.0,0.0,0.0,0.0,-2.4,-3.1,-0.4,-0.2,-144.6,154.8,0.22926829268292684,52.73170731707317,0.0,0.0,1.0,0.0,0.0,0.0,0.0,0.0,-2.1,-0.2,-0.3,-0.2,-77.5,153.2,0.21212121212121213,45.3939393939394,0.0,0.0,1.0,0.0,0.0,0.0,0.0,0.0,-2.0,-1.9,-0.1,-0.8,-140.8,82.0,0.01947024932736566,0.0066230190350546995,0.00017526004241064672,0.005736097805548915,0.023683827450220893,0.0057359923577877964,,,17.595000000000002,30.459545454545456,28.297647058823532,PHE,GLY,SER,GLY,VAL,LEU,THR,VAL,LYS,LEU,GLY,GLY,ASP,LEU,GLY,THR,TYR,VAL,ILE,ASN,GLN,THR,PRO,ASN,LYS,GLN,ILE,TRP,LEU,SER,SER,PRO,SER,SER,GLY,PRO,LYS,ARG,TYR,ASP,4.1,8.45,57.3,33.6,,121.43,1,59.0,0.859876441568,5.0
58,1ekg,1ekg_A.pdb,GLN,148,A,LYS,THR,0.21681540923081383,-0.976212619422672,-0.8922027704822972,0.45163504773623725,-0.7745935497302087,-0.6324593526198776,0.13879842474725715,0.9903206537721406,0.5678602119218719,-0.8231250085594817,0.6845768807406775,-0.7289406658675068,0.5668607890055952,0.8238135989943077,1,-0.9880168397690281,-0.15434611861923409,1,-0.7161104094185191,-0.6979870210272114,1,0.4689400735540863,-0.8832299855728903,1,0.5650886290157575,-0.8250302063301026,1,0.0,0.0,0,3.462709426879883,-0.4191472525354149,-0.45508647394536805,1,-0.46719838838686595,0.0,0.0,0.0,0,0.0,2.2190463542938232,-0.7527607683085191,-0.865154086526781,1,-1.7471650940594017,2.3121519088745117,-0.9591951371264178,-0.7446008048936092,1,-1.5281324285653393,0.0,0.0,0.0,0,0.0,0.8760178853503151,0.8742068275174003,0.8834854973805031,-1,2,0,-1,-3,1,1,-2,-1,-3,-2,5,-1,-3,-1,0,-1,-3,-2,-2,-1,1,0,0,-3,5,2,-2,0,-3,-2,1,0,-3,-1,0,-1,-2,-1,-2,0,-1,0,-1,-1,-1,-1,-2,-2,-1,-1,-1,-1,-2,-1,1,5,-2,-2,0,4.42,8.32,55.7,29.4,176.0,119.8,20,15,0.5437867333992982,18,17,8,16,0.5376099526698425,11,13,14,13,0.8860024624416162,10,17,0.22926829268292684,52.73170731707317,0.0,0.0,1.0,0.0,0.0,0.0,0.0,0.0,-2.1,-0.2,-0.3,-0.2,-77.5,153.2,0.21212121212121213,45.3939393939394,0.0,0.0,1.0,0.0,0.0,0.0,0.0,0.0,-2.0,-1.9,-0.1,-0.8,-140.8,82.0,0.20422535211267606,33.2887323943662,0.0,0.0,0.0,1.0,0.0,0.0,0.0,0.0,-0.2,-0.8,-0.2,-0.1,-55.4,-46.8,0.04052612006180614,0.09036023432869052,0.14066972503635616,0.021272542980997552,-0.04202187339220071,0.3354546555131245,,,30.459545454545456,28.297647058823532,21.051428571428573,GLY,SER,GLY,VAL,LEU,THR,VAL,LYS,LEU,GLY,GLY,ASP,LEU,GLY,THR,TYR,VAL,ILE,ASN,LYS,THR,PRO,ASN,LYS,GLN,ILE,TRP,LEU,SER,SER,PRO,SER,SER,GLY,PRO,LYS,ARG,TYR,ASP,TRP,4.42,7.81,54.3,27.4,174.7,129.53,1,60.0,0.872635767414,5.0
59,1ekg,1ekg_A.pdb,THR,149,A,GLN,PRO,-0.7745935497302087,-0.6324593526198776,0.13879842474725715,0.9903206537721406,0.5678602119218719,-0.8231250085594817,0.6845768807406775,-0.7289406658675068,0.5607178362286944,-0.8280069493277281,0.844098403996169,-0.5361882919004483,-0.7161104094185191,-0.6979870210272114,1,0.4689400735540863,-0.8832299855728903,1,0.5650886290157575,-0.8250302063301026,1,0.0,0.0,0,0.9205076043645871,0.3907246476829543,1,0.7781766478915177,-0.628045463860954,1,2.3121519088745117,-0.9591951371264178,-0.7446008048936092,1,-1.5281324285653393,0.0,0.0,0.0,0,0.0,0.0,0.0,0.0,0,0.0,2.165541172027588,-0.8373769168641998,-0.163547364566244,1,-0.7841400217029434,0.0,0.0,0.0,0,0.0,0.8742068275174003,0.8834854973805031,0.6930796447397822,-1,1,0,0,-3,5,2,-2,0,-3,-2,1,0,-3,-1,0,-1,-2,-1,-2,0,-1,0,-1,-1,-1,-1,-2,-2,-1,-1,-1,-1,-2,-1,1,5,-2,-2,0,-1,-2,-2,-1,-3,-1,-1,-2,-2,-3,-3,-1,-2,-4,7,-1,-1,-4,-3,-2,4.61,8.15,59.8,69.8,173.2,116.0,8,16,0.5376099526698425,11,13,14,13,0.8860024624416162,10,17,0,14,0.904984092438392,0,14,0.21212121212121213,45.3939393939394,0.0,0.0,1.0,0.0,0.0,0.0,0.0,0.0,-2.0,-1.9,-0.1,-0.8,-140.8,82.0,0.20422535211267606,33.2887323943662,0.0,0.0,0.0,1.0,0.0,0.0,0.0,0.0,-0.2,-0.8,-0.2,-0.1,-55.4,-46.8,0.7794117647058824,120.02941176470588,0.0,0.0,0.0,1.0,0.0,0.0,0.0,0.0,0.0,-0.2,0.0,-0.0,-55.9,-32.4,0.037485046951530224,0.04003826400281084,-0.003435437788162002,0.020795145366138485,0.08544106776786771,0.30195014414430105,,,28.297647058823532,21.051428571428573,23.08642857142857,SER,GLY,VAL,LEU,THR,VAL,LYS,LEU,GLY,GLY,ASP,LEU,GLY,THR,TYR,VAL,ILE,ASN,LYS,GLN,PRO,ASN,LYS,GLN,ILE,TRP,LEU,SER,SER,PRO,SER,SER,GLY,PRO,LYS,ARG,TYR,ASP,TRP,THR,4.01,8.57,68.5,66.7,,123.43,1,61.0,0.901717886132,5.0
60,1ekg,1ekg_A.pdb,PRO,150,A,THR,ASN,0.5678602119218719,-0.8231250085594817,0.6845768807406775,-0.7289406658675068,0.5607178362286944,-0.8280069493277281,0.844098403996169,-0.5361882919004483,-0.1446676681936355,-0.9894803008546538,0.996872177923442,-0.07903075908893623,0.5650886290157575,-0.8250302063301026,1,0.0,0.0,0,0.9205076043645871,0.3907246476829543,1,0.7781766478915177,-0.628045463860954,1,0.2157422447760858,-0.9764503488754436,1,0.5019529042248959,0.8648949542806875,1,2.165541172027588,-0.8373769168641998,-0.163547364566244,1,-0.7841400217029434,0.0,0.0,0.0,0,0.0,0.0,0.0,0.0,0,0.0,3.8192803859710693,-0.9757228183364829,-0.004399571143186113,1,-0.17249086385038828,2.534526824951172,-0.8586190687763,-0.751610073745557,1,-1.058786971633808,0.8834854973805031,0.6930796447397822,0.8601832527842492,0,-1,0,-1,-1,-1,-1,-2,-2,-1,-1,-1,-1,-2,-1,1,5,-2,-2,0,-1,-2,-2,-1,-3,-1,-1,-2,-2,-3,-3,-1,-2,-4,7,-1,-1,-4,-3,-2,-2,0,6,1,-3,0,0,0,1,-3,-3,0,-2,-3,-2,1,0,-4,-2,-3,4.74,0,63.3,32.1,177.3,0,14,13,0.8860024624416162,10,17,0,14,0.904984092438392,0,14,4,14,0.7765427055023363,9,9,0.20422535211267606,33.2887323943662,0.0,0.0,0.0,1.0,0.0,0.0,0.0,0.0,-0.2,-0.8,-0.2,-0.1,-55.4,-46.8,0.7794117647058824,120.02941176470588,0.0,0.0,0.0,1.0,0.0,0.0,0.0,0.0,0.0,-0.2,0.0,-0.0,-55.9,-32.4,0.5286624203821656,98.85987261146497,0.0,0.0,0.0,1.0,0.0,0.0,0.0,0.0,-0.7,-0.2,-0.1,-0.1,-98.3,-4.5,0.016190644672244306,0.025849689868893244,0.012541090751187494,0.02487303096467565,,0.07330955006429601,,,21.051428571428573,23.08642857142857,23.740714285714287,GLY,VAL,LEU,THR,VAL,LYS,LEU,GLY,GLY,ASP,LEU,GLY,THR,TYR,VAL,ILE,ASN,LYS,GLN,THR,ASN,LYS,GLN,ILE,TRP,LEU,SER,SER,PRO,SER,SER,GLY,PRO,LYS,ARG,TYR,ASP,TRP,THR,GLY,4.23,,66.2,30.9,,,1,62.0,0.907265155571,5.0
61,1ekg,1ekg_A.pdb,ASN,151,A,PRO,LYS,0.5607178362286944,-0.8280069493277281,0.844098403996169,-0.5361882919004483,-0.1446676681936355,-0.9894803008546538,0.996872177923442,-0.07903075908893623,0.5891260645582239,0.8080411376026219,0.6970266359024467,0.7170452348649407,0.9205076043645871,0.3907246476829543,1,0.7781766478915177,-0.628045463860954,1,0.2157422447760858,-0.9764503488754436,1,0.5019529042248959,0.8648949542806875,1,0.41079732334020297,-0.9117266910300064,1,-0.9988783646093906,0.04734989667643745,1,3.8192803859710693,-0.9757228183364829,-0.004399571143186113,1,-0.17249086385038828,0.0,0.0,0.0,0,0.0,2.534526824951172,-0.8586190687763,-0.751610073745557,1,-1.058786971633808,2.317211627960205,-0.9971194783774927,-0.437701853186409,1,-1.464334853226482,2.165541172027588,-0.163547364566244,-0.8373769168641998,1,-0.7841400217029434,0.6930796447397822,0.8601832527842492,0.8895671842490808,-1,-2,-2,-1,-3,-1,-1,-2,-2,-3,-3,-1,-2,-4,7,-1,-1,-4,-3,-2,-2,0,6,1,-3,0,0,0,1,-3,-3,0,-2,-3,-2,1,0,-4,-2,-3,-1,2,0,-1,-3,1,1,-2,-1,-3,-2,5,-1,-3,-1,0,-1,-3,-2,-2,4.48,8.4,53.1,38.9,175.2,118.7,0,14,0.904984092438392,0,14,4,14,0.7765427055023363,9,9,14,12,0.8604673686870261,11,15,0.7794117647058824,120.02941176470588,0.0,0.0,0.0,1.0,0.0,0.0,0.0,0.0,0.0,-0.2,0.0,-0.0,-55.9,-32.4,0.5286624203821656,98.85987261146497,0.0,0.0,0.0,1.0,0.0,0.0,0.0,0.0,-0.7,-0.2,-0.1,-0.1,-98.3,-4.5,0.4097560975609756,94.24390243902438,0.0,0.0,0.0,0.0,0.0,1.0,0.0,0.0,-0.8,-0.5,-0.8,-0.3,53.9,45.8,0.015230124499167975,0.006866047318892083,-0.02007543908173943,0.018591324048357272,0.17741234750232707,0.002988644926966512,,,23.08642857142857,23.740714285714287,23.97318181818182,VAL,LEU,THR,VAL,LYS,LEU,GLY,GLY,ASP,LEU,GLY,THR,TYR,VAL,ILE,ASN,LYS,GLN,THR,PRO,LYS,GLN,ILE,TRP,LEU,SER,SER,PRO,SER,SER,GLY,PRO,LYS,ARG,TYR,ASP,TRP,THR,GLY,LYS,4.75,7.02,53.2,40.3,176.8,110.93,1,63.0,0.912980882551,5.0
62,1ekg,1ekg_A.pdb,LYS,152,A,ASN,GLN,-0.1446676681936355,-0.9894803008546538,0.996872177923442,-0.07903075908893623,0.5891260645582239,0.8080411376026219,0.6970266359024467,0.7170452348649407,-0.6804324153868638,-0.7328108405931222,-0.990771559790672,0.13554230450290736,0.2157422447760858,-0.9764503488754436,1,0.5019529042248959,0.8648949542806875,1,0.41079732334020297,-0.9117266910300064,1,-0.9988783646093906,0.04734989667643745,1,0.4172313208619184,-0.9088003217934173,1,-0.9960577767187798,0.08870685113361529,1,2.317211627960205,-0.9971194783774927,-0.437701853186409,1,-1.464334853226482,3.2654571533203125,-0.36334908432705876,-0.19643566147894426,1,-0.09529856544401794,2.165541172027588,-0.163547364566244,-0.8373769168641998,1,-0.7841400217029434,3.3929941654205322,-0.9947245694712995,-0.4532044284758556,1,-0.553332950489169,2.3121519088745117,-0.7446008048936092,-0.9591951371264178,1,-1.5281324285653393,0.8601832527842492,0.8895671842490808,0.8846380635569595,-2,0,6,1,-3,0,0,0,1,-3,-3,0,-2,-3,-2,1,0,-4,-2,-3,-1,2,0,-1,-3,1,1,-2,-1,-3,-2,5,-1,-3,-1,0,-1,-3,-2,-2,-1,1,0,0,-3,5,2,-2,0,-3,-2,1,0,-3,-1,0,-1,-2,-1,-2,4.17,8.29,56.2,33.1,176.6,120.4,4,14,0.7765427055023363,9,9,14,12,0.8604673686870261,11,15,15,20,0.6429588085112631,10,25,0.5286624203821656,98.85987261146497,0.0,0.0,0.0,1.0,0.0,0.0,0.0,0.0,-0.7,-0.2,-0.1,-0.1,-98.3,-4.5,0.4097560975609756,94.24390243902438,0.0,0.0,0.0,0.0,0.0,1.0,0.0,0.0,-0.8,-0.5,-0.8,-0.3,53.9,45.8,0.11616161616161616,24.858585858585858,0.0,0.0,1.0,0.0,0.0,0.0,0.0,0.0,-1.9,-2.0,-0.1,-0.5,-132.9,172.2,0.025250316685927993,0.16791896393944955,0.04787757489651907,0.0581239482489235,0.4900201591553357,1.370102211343577,,,23.740714285714287,23.97318181818182,16.84941176470588,LEU,THR,VAL,LYS,LEU,GLY,GLY,ASP,LEU,GLY,THR,TYR,VAL,ILE,ASN,LYS,GLN,THR,PRO,ASN,GLN,ILE,TRP,LEU,SER,SER,PRO,SER,SER,GLY,PRO,LYS,ARG,TYR,ASP,TRP,THR,GLY,LYS,ASN,2.12,7.92,57.4,28.9,,117.63,1,64.0,0.920207988002,5.0
